1,1,-0.32662,-0.35103,-0.37649,-0.40278,-0.42964,-0.45681,-0.48399,-0.51087,-0.53714,-0.56246,-0.58648,-0.60886,-0.62926,-0.6473,-0.66267,-0.67501,-0.68401,-0.68935,-0.69076,-0.68797,-0.68075,-0.66889,-0.65223,-0.63063,-0.604,-0.57231,-0.53554,-0.49375,-0.44703,-0.39551,-0.3394,-0.27894,-0.2144,-0.14614,-0.074523,2.1155e-05,0.077034,0.15602,0.23645,0.31778,0.39944,0.48083,0.56136,0.64043,0.71745,0.79182,0.86299,0.93039,0.99351,1.0519,1.105,1.1526,1.1941,1.2295,1.2583,1.2804,1.2958,1.3043,1.306,1.301,1.2893,1.2712,1.2469,1.2168,1.1812,1.1406,1.0953,1.0459,0.99294,0.93686,0.87826,0.81772,0.75579,0.69305,0.63004,0.56731,0.50536,0.44467,0.38571,0.32887,0.27452,0.22299,0.17455,0.12942,0.087766,0.049716,0.015332,-0.015366,-0.04241,-0.065876,-0.085882,-0.10259,-0.11618,-0.12689,-0.13497,-0.14067,-0.1443,-0.14613,-0.14648,-0.14564,-0.14392,-0.14159,-0.13894,-0.13623,-0.1337,-0.13156,-0.13002,-0.12923,-0.12935,-0.13048,-0.13271,-0.13611,-0.1407,-0.1465,-0.1535,-0.16164,-0.17089,-0.18117,-0.19239,-0.20446,-0.21728,-0.23072,-0.24468,-0.25903,-0.27367,-0.28847,-0.30333,-0.31815,-0.33282,-0.34727,-0.36141,-0.37517,-0.3885,-0.40133,-0.41363,-0.42537,-0.4365,-0.44701,-0.45689,-0.46612,-0.47469,-0.48259,-0.48982,-0.49636,-0.50222,-0.50738,-0.51182,-0.51554,-0.51852,-0.52073,-0.52216,-0.52277,-0.52254,-0.52144,-0.51944,-0.51651,-0.51262,-0.50775,-0.50187,-0.49496,-0.487,-0.47798,-0.46791,-0.45677,-0.44458,-0.43135,-0.4171,-0.40187,-0.38569,-0.3686,-0.35065,-0.33189,-0.3124,-0.29223,-0.27145,-0.25014,-0.22837,-0.20623,-0.18379,-0.16113,-0.13834,-0.11548,-0.092632,-0.069873,-0.047269,-0.024883,-0.0027726,0.01901,0.040418,0.061416,0.081973,0.10207,0.12169,0.14082,0.15949,0.17769,0.19545,0.21281,0.2298,0.24646,0.26285,0.27904,0.29508,0.31103,0.32698,0.34299,0.35913,0.37546,0.39205,0.40896,0.42623,0.44391,0.46201,0.48056,0.49956,0.51899,0.53882,0.55901,0.57948,0.60016,0.62093,0.64169,0.66228,0.68257,0.70238,0.72153,0.73983,0.75708,0.77308,0.78762,0.80049,0.81148,0.82039,0.82704,0.83125,0.83285,0.8317,0.82766,0.82065,0.81059,0.79741,0.78111,0.76169,0.73919,0.71369,0.68527,0.65407,0.62025,0.584,0.54554,0.50509,0.46291,0.41929,0.37452,0.3289,0.28275,0.23638,0.19011,0.14426,0.099141,0.055047,0.012262,-0.028948,-0.068339,-0.10569,-0.14081,-0.17354,-0.20375,-0.23133,-0.25622,-0.2784,-0.29786,-0.31464,-0.32881,-0.34048,-0.34977,-0.35683,-0.36186,-0.36504,-0.36661,-0.36678,-0.36581,-0.36395,-0.36144,-0.35854,-0.35551,-0.35256,-0.34995,-0.34787,-0.34652,-0.34609,-0.34672,-0.34855,-0.35169,-0.35622,-0.3622,-0.36966,-0.37861,-0.38903,-0.40088,-0.4141,-0.42862,-0.44432,-0.46111,-0.47884,-0.49739,-0.5166,-0.53632,-0.55639,-0.57666,-0.59695,-0.61712,-0.63701,-0.65647,-0.67536,-0.69355,-0.71091,-0.72732,-0.7427,-0.75693,-0.76995,-0.78168,-0.79206,-0.80105,-0.80861,-0.81471,-0.81934,-0.82249,-0.82416,-0.82434,-0.82306,-0.82034,-0.81618,-0.81063,-0.8037,-0.79543,-0.78585,-0.775,-0.76289,-0.74958,-0.73509,-0.71946,-0.70272,-0.6849,-0.66605,-0.64618,-0.62535,-0.60357,-0.5809,-0.55735,-0.53299,-0.50783,-0.48193,-0.45532,-0.42805,-0.40016,-0.37171,-0.34274,-0.3133,-0.28343,-0.2532,-0.22264,-0.19182,-0.16077,-0.12955,-0.098204,-0.066774,-0.035304,-0.0038353,0.027596,0.058954,0.090206,0.12132,0.15228,0.18304,0.21359,0.2439,0.27395,0.30372,0.33318,0.36232,0.39109,0.41949,0.44747,0.47501,0.50206,0.52859,0.55454,0.57987,0.60453,0.62846,0.6516,0.67387,0.69523,0.71558,0.73488,0.75303,0.76998,0.78566,0.79999,0.81291,0.82437,0.8343,0.84266,0.8494,0.8545,0.85791,0.85963,0.85965,0.85796,0.85457,0.84949,0.84277,0.83442,0.8245,0.81305,0.80013,0.78581,0.77016,0.75325,0.73516,0.71598,0.6958,0.6747,0.65276,0.63008,0.60675,0.58286,0.55849,0.53372,0.50863,0.48331,0.45783,0.43226,0.40668,0.38114,0.35571,0.33045,0.30542,0.28066,0.25623,0.23217,0.20853,0.18534,0.16266,0.1405,0.11891,0.097911,0.07754,0.057822,0.038781,0.020439,0.0028154,-0.014071,-0.030204,-0.04557,-0.060158,-0.073958,-0.086964,-0.099169,-0.11057,-0.12117,-0.13096,-0.13994,-0.14813,-0.15553,-0.16213,-0.16796,-0.17302,-0.17731,-0.18086,-0.18366,-0.18575,-0.18712,-0.18781,-0.18781,-0.18716,-0.18587,-0.18396,-0.18146,-0.1784,-0.17479,-0.17069,-0.16611,-0.1611,-0.1557,-0.14996,-0.14393,-0.13766,-0.1312,-0.12463,-0.11801,-0.1114,-0.10488,-0.098515,-0.092388,-0.086572,-0.081141,-0.076168,-0.071724,-0.067878,-0.064691,-0.062221,-0.060518,-0.059626,-0.059577,-0.060397,-0.062099,-0.064687,-0.068154,-0.07248,-0.077636,-0.08358,-0.09026,-0.097615,-0.10557,-0.11405,-0.12297,-0.13224,-0.14175,-0.15141,-0.16113,-0.17079,-0.1803,-0.18956,-0.1985,-0.20702,-0.21505,-0.22252,-0.22939,-0.23562,-0.24116,-0.246,-0.25015,-0.2536,-0.25638,-0.25852,-0.26007,-0.26109,-0.26163,-0.26179,-0.26163,-0.26124,-0.26073,-0.26017,-0.25967,-0.25933,-0.25922,-0.25944,-0.26007,-0.26117,-0.26281,-0.26504,-0.26791,-0.27142,-0.27561,-0.28047,-0.28598,-0.29212,-0.29883,-0.30606,-0.31375,-0.3218,-0.33013,-0.33861,-0.34715,-0.35562,-0.36388,-0.37182,-0.37928,-0.38614,-0.39226,-0.3975,-0.40175,-0.40489,-0.40679,-0.40736,-0.4065,-0.40415,-0.40023,-0.39469,-0.3875,-0.37864,-0.36811,-0.35592,-0.3421,-0.32669,-0.30976,-0.29138,-0.27164,-0.25065,-0.2285,-0.20533,-0.18127,-0.15645,-0.13102,-0.10512,-0.078901,-0.052514,-0.026106,0.00017617,0.026191,0.0518,0.076874,0.10129,0.12492,0.14767,0.16944,0.19013,0.20967,0.22799,0.24503,0.26075,0.27509,0.28805,0.29959,0.30971,0.31841,0.3257,0.33159,0.33611,0.33929,0.34116,0.34178,0.34118,0.33943,0.33658,0.33271,0.32786,0.32212,0.31556,0.30825,0.30027,0.29171,0.28263,0.27312,0.26325,0.25312,0.24279,0.23235,0.22187,0.21143,0.20108,0.19092,0.18099,0.17136,0.1621,0.15324,0.14485,0.13697,0.12964,0.1229,0.11677,0.11129,0.10648,0.10234,0.098896,0.096151,0.094104,0.092751,0.092082,0.092084,0.092736,0.094015,0.095893,0.098336,0.10131,0.10477,0.10868,0.11299,0.11765,0.12262,0.12783,0.13324,0.1388,0.14444,0.15012,0.15578,0.16138,0.16685,0.17217,0.17727,0.18212,0.18667,0.19089,0.19475,0.1982,0.20122,0.20379,0.20588,0.20747,0.20854,0.20907,0.20905,0.20847,0.20731,0.20556,0.20322,0.20028,0.19673,0.19256,0.18778,0.18238,0.17636,0.16971,0.16243,0.15453,0.146,0.13685,0.12708,0.1167,0.10571,0.094136,0.081979,0.06926,0.055999,0.042223,0.027959,0.013244,-0.0018846,-0.017381,-0.033194,-0.049268,-0.065541,-0.081944,-0.098404,-0.11484,-0.13117,-0.14731,-0.16315,-0.17861,-0.19359,-0.20798,-0.22169,-0.23462,-0.24666,-0.25772,-0.26772,-0.27656,-0.28417,-0.29049,-0.29544,-0.29899,-0.30109,-0.30172,-0.30087,-0.29855,-0.29476,-0.28955,-0.28296,-0.27505,-0.26589,-0.25558,-0.24421,-0.2319,-0.21877,-0.20495,-0.19057,-0.17579,-0.16074,-0.14558,-0.13046,-0.11553,-0.10093,-0.086795,-0.073269,-0.060471,-0.048515,-0.037504,-0.027528,-0.018663,-0.010969,-0.0044912,0.00074056,0.0047142,0.0074338,0.0089204,0.0092111,0.008359,0.0064321,0.0035126,-0.00030407,-0.0049109,-0.010191,-0.016018,-0.022258,-0.028776,-0.035428,-0.042073,-0.048569,-0.054776,-0.060561,-0.065795,-0.070358,-0.074138,-0.077037,-0.078966,-0.079851,-0.079632,-0.078264,-0.075716,-0.071973,-0.067035,-0.060919,-0.053654,-0.045286,-0.035871,-0.025479,-0.014192,-0.0021019,0.010692,0.024083,0.037957,0.052197,0.066681,0.081287,0.095893,0.11038,0.12462,0.13851,0.15192,0.16477,0.17694,0.18834,0.19889,0.20852,0.21715,0.22471,0.23117,0.23648,0.24059,0.24349,0.24516,0.24558,0.24475,0.24267,0.23935,0.23481,0.22908,0.22217,0.21413,0.20499,0.1948,0.1836,0.17145,0.15841,0.14454,0.1299,0.11458,0.098641,0.082167,0.065243,0.047958,0.030406,0.012684,-0.0051077,-0.022863,-0.040474,-0.05783,-0.074814,-0.091312,-0.10721,-0.12237,-0.1367,-0.15006,-0.16235,-0.17344,-0.18322,-0.1916,-0.19847,-0.20374,-0.20734,-0.20917,-0.2092,-0.20737,-0.20365,-0.19802,-0.19049,-0.18107,-0.1698,-0.15674,-0.14197,-0.12557,-0.10767,-0.088398,-0.06791,-0.046375,-0.02398,-0.00092601,0.022573,0.046293,0.070002,0.093461,0.11643,0.13866,0.15993,0.17999,0.19862,0.21561,0.23075,0.24388,0.25481,0.26341,0.26956,0.27317,0.27416,0.2725,0.26818,0.2612,0.25161,0.23948,0.22492,0.20803,0.18897,0.16791,0.14503,0.12055,0.09468,0.067663,0.03974,0.011162,-0.017817,-0.046941,-0.07596,-0.10463,-0.1327,-0.15996,-0.18618,-0.21118,-0.23476,-0.25677,-0.27708,-0.29555,-0.3121,-0.32666,-0.33918,-0.34963,-0.35802,-0.36437,-0.36871,-0.37111,-0.37166,-0.37044,-0.36758,-0.36319,-0.35741,-0.35039,-0.34226,-0.33318,-0.32331,-0.31279,-0.30178,-0.2904,-0.27881,-0.26712,-0.25545,-0.24391,-0.23259,-0.22157,-0.21091,-0.20068,-0.19091,-0.18163,-0.17286,-0.16459,-0.15682,-0.14953,-0.1427,-0.13628,-0.13023,-0.12451,-0.11906,-0.11383,-0.10874,-0.10375,-0.098795,-0.09381,-0.088739,-0.083527,-0.078123,-0.072478,-0.066551,-0.060303,-0.053704,-0.046729,-0.039359,-0.031583,-0.023396,-0.014802,-0.0058113,0.0035595,0.013286,0.023336,0.033673,0.044251,0.055021,0.065928,0.076911,0.087907,0.098846,0.10966,0.12027,0.13062,0.14062,0.1502,0.15929,0.16782,0.17574,0.18297,0.18946,0.19517,0.20004,0.20406,0.20718,0.20939,0.21067,0.21104,0.21049,0.20904,0.20671,0.20354,0.19957,0.19485,0.18944,0.18339,0.17678,0.16967,0.16215,0.15428,0.14616,0.13786,0.12947,0.12105,0.1127,0.10449,0.096483,0.088751,0.081357,0.074355,0.067798,0.061727,0.05618,0.051187,0.046771,0.042946,0.039721,0.037096,0.035066,0.033619,0.032736,0.032392,0.032557,0.033198,0.034276,0.035748,0.03757,0.039696,0.042076,0.044663,0.047406,0.050259,0.053174,0.056108,0.059018,0.061865,0.064616,0.06724,0.069712,0.07201,0.074119,0.07603,0.077737,0.079241,0.080548,0.081669,0.082619,0.083419,0.084092,0.084666,0.085169,0.085633,0.086092,0.086577,0.087122,0.087757,0.088511,0.08941,0.090475,0.091725,0.09317,0.094818,0.096667,0.09871,0.10093,0.10331,0.10582,0.10843,0.11109,0.11375,0.11635,0.11885,0.12118,0.12327,0.12505,0.12647,0.12744,0.12791,0.12781,0.12709,0.1257,0.12359,0.12073,0.11708,0.11264,0.10738,0.10132,0.094476,0.086863,0.078522,0.0695,0.059855,0.049656,0.038979,0.02791,0.016544,0.0049792,-0.0066783,-0.01832,-0.029835,-0.041109,-0.052033,-0.062495,-0.072389,-0.081616,-0.090079,-0.097693,-0.10438,-0.11008,-0.11473,-0.1183,-0.12075,-0.12208,-0.12229,-0.1214,-0.11943,-0.11645,-0.11251,-0.10769,-0.10209,-0.095801,-0.088943,-0.08164,-0.074019,-0.066218,-0.058376,-0.050632,-0.043127,-0.035998,-0.029376,-0.023386,-0.018141,-0.013747,-0.010294,-0.0078575,-0.0064988,-0.006261,-0.0071697,-0.0092319,-0.012436,-0.016752,-0.022132,-0.028509,-0.0358,-0.043908,-0.052721,-0.062113,-0.071951,-0.082091,-0.092386,-0.10268,-0.11283,-0.12268,-0.13207,-0.14088,-0.14896,-0.15621,-0.1625,-0.16774,-0.17187,-0.17481,-0.17653,-0.177,-0.17622,-0.17421,-0.17101,-0.16666,-0.16124,-0.15484,-0.14756,-0.13953,-0.13086,-0.12172,-0.11224,-0.10258,-0.092892,-0.083348,-0.074103,-0.065313,-0.057132,-0.049702,-0.043158,-0.037626,-0.033215,-0.030023,-0.02813,-0.027601,-0.028482,-0.030802,-0.034569,-0.039773,-0.046385,-0.054357,-0.063622,-0.074093,-0.08567,-0.098233,-0.11165,-0.12577,-0.14043,-0.15546,-0.17069,-0.18592,-0.20097,-0.21564,-0.22973,-0.24305,-0.25541,-0.26662,-0.27651,-0.28492,-0.29168,-0.29665,-0.29972,-0.30079,-0.29975,-0.29655,-0.29114,-0.28351,-0.27366,-0.26161,-0.24742,-0.23116,-0.21293,-0.19286,-0.17108,-0.14777,-0.1231,-0.097273,-0.070505,-0.043022,-0.01506,0.013138,0.041326,0.069255,0.09668,0.12336,0.14906,0.17357,0.19667,0.21818,0.23793,0.25576,0.27155,0.28521,0.29665,0.30584,0.31276,0.3174,0.31982,0.32008,0.31826,0.31448,0.30888,0.30161,0.29285,0.28279,0.27162,0.25956,0.24683,0.23362,0.22017,0.20668,0.19334,0.18036,0.16789,0.15611,0.14516,0.13514,0.12615,0.11828,0.11156,0.10602,0.10165,0.098439,0.096323,0.095234,0.095081,0.09575,0.097117,0.099037,0.10136,0.10393,0.10657,0.10912,0.11142,0.1133,0.11462,0.11522,0.11498,0.11378,0.11153,0.10816,0.10361,0.09785,0.090873,0.082698,0.073364,0.062936,0.051502,0.03917,0.026068,0.01234,-0.0018528,-0.016339,-0.030937,-0.045458,-0.059712,-0.073509,-0.08666,-0.098986,-0.11032,-0.12049,-0.12937,-0.13682,-0.14274,-0.14705,-0.14968,-0.1506,-0.14978,-0.14725,-0.14303,-0.13719,-0.1298,-0.12096,-0.1108,-0.09945,-0.087061,-0.073799,-0.059838,-0.045357,-0.030541,-0.015575,-0.00064214,0.01408,0.028422,0.042222,0.055333,0.067623,0.078974,0.089288,0.098485,0.10651,0.11331,0.11888,0.12322,0.12635,0.12831,0.12916,0.12897,0.12783,0.12585,0.12313,0.1198,0.11598,0.1118,0.1074,0.1029,0.098417,0.094082,0.090001,0.086273,0.082986,0.080213,0.078013,0.07643,0.075489,0.0752,0.075556,0.07653,0.078082,0.080153,0.082672,0.085552,0.088694,0.091989,0.09532,0.098559,0.10158,0.10425,0.10643,0.10799,0.10881,0.10876,0.10773,0.10563,0.10235,0.097831,0.092005,0.084834,0.076291,0.066372,0.055092,0.042486,0.028607,0.013528,-0.0026563,-0.019838,-0.037889,-0.05667,-0.076027,-0.095794,-0.1158,-0.13586,-0.1558,-0.17544,-0.19458,-0.21306,-0.2307,-0.24734,-0.26284,-0.27705,-0.28986,-0.30116,-0.31087,-0.31893,-0.32528,-0.3299,-0.33278,-0.33395,-0.33343,-0.33128,-0.32756,-0.32237,-0.3158,-0.30797,-0.299,-0.28901,-0.27816,-0.26657,-0.25439,-0.24176,-0.22882,-0.21572,-0.20257,-0.18949,-0.17661,-0.16401,-0.15178,-0.14001,-0.12875,-0.11805,-0.10794,-0.098442,-0.089564,-0.081299,-0.073629,-0.066523,-0.059944,-0.053843,-0.048167,-0.042855,-0.037844,-0.033067,-0.028458,-0.023951,-0.019482,-0.014993,-0.010429,-0.0057415,-0.00089147,0.0041536,0.0094165,0.014911,0.02064,0.026599,0.032771,0.039132,0.045647,0.052276,0.058971,0.065676,0.072335,0.078886,0.085265,0.091409,0.097258,0.10275,0.10783,0.11246,0.11659,0.12018,0.12321,0.12568,0.12756,0.12887,0.12963,0.12985,0.12958,0.12886,0.12774,0.12627,0.12453,0.12258,0.12049,0.11833,0.11616,0.11407,0.1121,0.11031,0.10876,0.10748,0.1065,0.10584,0.1055,0.10549,0.10579,0.10636,0.10717,0.10816,0.10929,0.11046,0.11162,0.11268,0.11355,0.11415,0.11438,0.11416,0.11341,0.11206,0.11003,0.10727,0.10373,0.099374,0.094183,0.08815,0.081282,0.073603,0.065152,0.055983,0.046163,0.035774,0.024908,0.01367,0.0021728,-0.0094636,-0.021114,-0.03265,-0.043944,-0.054867,-0.065295,-0.075111,-0.084203,-0.092472,-0.099828,-0.10619,-0.11151,-0.11572,-0.1188,-0.12073,-0.12151,-0.12116,-0.11971,-0.1172,-0.1137,-0.10927,-0.104,-0.097975,-0.091304,-0.084088,-0.076438,-0.068466,-0.060285,-0.052006,-0.043739,-0.035586,-0.027647,-0.020012,-0.012764,-0.0059754,0.00028916,0.0059772,0.011047,0.015467,0.019217,0.022288,0.024682,0.02641,0.027491,0.027955,0.027838,0.027184,0.026041,0.024462,0.022504,0.020227,0.017691,0.014956,0.012083,0.0091283,0.0061485,0.0031951,0.00031608,-0.0024456,-0.005052,-0.0074707,-0.0096751,-0.011644,-0.013364,-0.014824,-0.016021,-0.016956,-0.017636,-0.018072,-0.018277,-0.018269,-0.018069,-0.017697,-0.017179,-0.016537,-0.015797,-0.014982,-0.014116
1,2,-0.32662,-0.35103,-0.37649,-0.40278,-0.42964,-0.45681,-0.48399,-0.51087,-0.53714,-0.56246,-0.58648,-0.60886,-0.62926,-0.6473,-0.66267,-0.67501,-0.68401,-0.68935,-0.69076,-0.68797,-0.68075,-0.66889,-0.65223,-0.63063,-0.604,-0.57231,-0.53554,-0.49375,-0.44703,-0.39551,-0.3394,-0.27894,-0.2144,-0.14614,-0.074523,2.1155e-05,0.077034,0.15602,0.23645,0.31778,0.39944,0.48083,0.56136,0.64043,0.71745,0.79182,0.86299,0.93039,0.99351,1.0519,1.105,1.1526,1.1941,1.2295,1.2583,1.2804,1.2958,1.3043,1.306,1.301,1.2893,1.2712,1.2469,1.2168,1.1812,1.1406,1.0953,1.0459,0.99294,0.93686,0.87826,0.81772,0.75579,0.69305,0.63004,0.56731,0.50536,0.44467,0.38571,0.32887,0.27452,0.22299,0.17455,0.12942,0.087766,0.049716,0.015332,-0.015366,-0.04241,-0.065876,-0.085882,-0.10259,-0.11618,-0.12689,-0.13497,-0.14067,-0.1443,-0.14613,-0.14648,-0.14564,-0.14392,-0.14159,-0.13894,-0.13623,-0.1337,-0.13156,-0.13002,-0.12923,-0.12935,-0.13048,-0.13271,-0.13611,-0.1407,-0.1465,-0.1535,-0.16164,-0.17089,-0.18117,-0.19239,-0.20446,-0.21728,-0.23072,-0.24468,-0.25903,-0.27367,-0.28847,-0.30333,-0.31815,-0.33282,-0.34727,-0.36141,-0.37517,-0.3885,-0.40133,-0.41363,-0.42537,-0.4365,-0.44701,-0.45689,-0.46612,-0.47469,-0.48259,-0.48982,-0.49636,-0.50222,-0.50738,-0.51182,-0.51554,-0.51852,-0.52073,-0.52216,-0.52277,-0.52254,-0.52144,-0.51944,-0.51651,-0.51262,-0.50775,-0.50187,-0.49496,-0.487,-0.47798,-0.46791,-0.45677,-0.44458,-0.43135,-0.4171,-0.40187,-0.38569,-0.3686,-0.35065,-0.33189,-0.3124,-0.29223,-0.27145,-0.25014,-0.22837,-0.20623,-0.18379,-0.16113,-0.13834,-0.11548,-0.092632,-0.069873,-0.047269,-0.024883,-0.0027726,0.01901,0.040418,0.061416,0.081973,0.10207,0.12169,0.14082,0.15949,0.17769,0.19545,0.21281,0.2298,0.24646,0.26285,0.27904,0.29508,0.31103,0.32698,0.34299,0.35913,0.37546,0.39205,0.40896,0.42623,0.44391,0.46201,0.48056,0.49956,0.51899,0.53882,0.55901,0.57948,0.60016,0.62093,0.64169,0.66228,0.68257,0.70238,0.72153,0.73983,0.75708,0.77308,0.78762,0.80049,0.81148,0.82039,0.82704,0.83125,0.83285,0.8317,0.82766,0.82065,0.81059,0.79741,0.78111,0.76169,0.73919,0.71369,0.68527,0.65407,0.62025,0.584,0.54554,0.50509,0.46291,0.41929,0.37452,0.3289,0.28275,0.23638,0.19011,0.14426,0.099141,0.055047,0.012262,-0.028948,-0.068339,-0.10569,-0.14081,-0.17354,-0.20375,-0.23133,-0.25622,-0.2784,-0.29786,-0.31464,-0.32881,-0.34048,-0.34977,-0.35683,-0.36186,-0.36504,-0.36661,-0.36678,-0.36581,-0.36395,-0.36144,-0.35854,-0.35551,-0.35256,-0.34995,-0.34787,-0.34652,-0.34609,-0.34672,-0.34855,-0.35169,-0.35622,-0.3622,-0.36966,-0.37861,-0.38903,-0.40088,-0.4141,-0.42862,-0.44432,-0.46111,-0.47884,-0.49739,-0.5166,-0.53632,-0.55639,-0.57666,-0.59695,-0.61712,-0.63701,-0.65647,-0.67536,-0.69355,-0.71091,-0.72732,-0.7427,-0.75693,-0.76995,-0.78168,-0.79206,-0.80105,-0.80861,-0.81471,-0.81934,-0.82249,-0.82416,-0.82434,-0.82306,-0.82034,-0.81618,-0.81063,-0.8037,-0.79543,-0.78585,-0.775,-0.76289,-0.74958,-0.73509,-0.71946,-0.70272,-0.6849,-0.66605,-0.64618,-0.62535,-0.60357,-0.5809,-0.55735,-0.53299,-0.50783,-0.48193,-0.45532,-0.42805,-0.40016,-0.37171,-0.34274,-0.3133,-0.28343,-0.2532,-0.22264,-0.19182,-0.16077,-0.12955,-0.098204,-0.066774,-0.035304,-0.0038353,0.027596,0.058954,0.090206,0.12132,0.15228,0.18304,0.21359,0.2439,0.27395,0.30372,0.33318,0.36232,0.39109,0.41949,0.44747,0.47501,0.50206,0.52859,0.55454,0.57987,0.60453,0.62846,0.6516,0.67387,0.69523,0.71558,0.73488,0.75303,0.76998,0.78566,0.79999,0.81291,0.82437,0.8343,0.84266,0.8494,0.8545,0.85791,0.85963,0.85965,0.85796,0.85457,0.84949,0.84277,0.83442,0.8245,0.81305,0.80013,0.78581,0.77016,0.75325,0.73516,0.71598,0.6958,0.6747,0.65276,0.63008,0.60675,0.58286,0.55849,0.53372,0.50863,0.48331,0.45783,0.43226,0.40668,0.38114,0.35571,0.33045,0.30542,0.28066,0.25623,0.23217,0.20853,0.18534,0.16266,0.1405,0.11891,0.097911,0.07754,0.057822,0.038781,0.020439,0.0028154,-0.014071,-0.030204,-0.04557,-0.060158,-0.073958,-0.086964,-0.099169,-0.11057,-0.12117,-0.13096,-0.13994,-0.14813,-0.15553,-0.16213,-0.16796,-0.17302,-0.17731,-0.18086,-0.18366,-0.18575,-0.18712,-0.18781,-0.18781,-0.18716,-0.18587,-0.18396,-0.18146,-0.1784,-0.17479,-0.17069,-0.16611,-0.1611,-0.1557,-0.14996,-0.14393,-0.13766,-0.1312,-0.12463,-0.11801,-0.1114,-0.10488,-0.098515,-0.092388,-0.086572,-0.081141,-0.076168,-0.071724,-0.067878,-0.064691,-0.062221,-0.060518,-0.059626,-0.059577,-0.060397,-0.062099,-0.064687,-0.068154,-0.07248,-0.077636,-0.08358,-0.09026,-0.097615,-0.10557,-0.11405,-0.12297,-0.13224,-0.14175,-0.15141,-0.16113,-0.17079,-0.1803,-0.18956,-0.1985,-0.20702,-0.21505,-0.22252,-0.22939,-0.23562,-0.24116,-0.246,-0.25015,-0.2536,-0.25638,-0.25852,-0.26007,-0.26109,-0.26163,-0.26179,-0.26163,-0.26124,-0.26073,-0.26017,-0.25967,-0.25933,-0.25922,-0.25944,-0.26007,-0.26117,-0.26281,-0.26504,-0.26791,-0.27142,-0.27561,-0.28047,-0.28598,-0.29212,-0.29883,-0.30606,-0.31375,-0.3218,-0.33013,-0.33861,-0.34715,-0.35562,-0.36388,-0.37182,-0.37928,-0.38614,-0.39226,-0.3975,-0.40175,-0.40489,-0.40679,-0.40736,-0.4065,-0.40415,-0.40023,-0.39469,-0.3875,-0.37864,-0.36811,-0.35592,-0.3421,-0.32669,-0.30976,-0.29138,-0.27164,-0.25065,-0.2285,-0.20533,-0.18127,-0.15645,-0.13102,-0.10512,-0.078901,-0.052514,-0.026106,0.00017617,0.026191,0.0518,0.076874,0.10129,0.12492,0.14767,0.16944,0.19013,0.20967,0.22799,0.24503,0.26075,0.27509,0.28805,0.29959,0.30971,0.31841,0.3257,0.33159,0.33611,0.33929,0.34116,0.34178,0.34118,0.33943,0.33658,0.33271,0.32786,0.32212,0.31556,0.30825,0.30027,0.29171,0.28263,0.27312,0.26325,0.25312,0.24279,0.23235,0.22187,0.21143,0.20108,0.19092,0.18099,0.17136,0.1621,0.15324,0.14485,0.13697,0.12964,0.1229,0.11677,0.11129,0.10648,0.10234,0.098896,0.096151,0.094104,0.092751,0.092082,0.092084,0.092736,0.094015,0.095893,0.098336,0.10131,0.10477,0.10868,0.11299,0.11765,0.12262,0.12783,0.13324,0.1388,0.14444,0.15012,0.15578,0.16138,0.16685,0.17217,0.17727,0.18212,0.18667,0.19089,0.19475,0.1982,0.20122,0.20379,0.20588,0.20747,0.20854,0.20907,0.20905,0.20847,0.20731,0.20556,0.20322,0.20028,0.19673,0.19256,0.18778,0.18238,0.17636,0.16971,0.16243,0.15453,0.146,0.13685,0.12708,0.1167,0.10571,0.094136,0.081979,0.06926,0.055999,0.042223,0.027959,0.013244,-0.0018846,-0.017381,-0.033194,-0.049268,-0.065541,-0.081944,-0.098404,-0.11484,-0.13117,-0.14731,-0.16315,-0.17861,-0.19359,-0.20798,-0.22169,-0.23462,-0.24666,-0.25772,-0.26772,-0.27656,-0.28417,-0.29049,-0.29544,-0.29899,-0.30109,-0.30172,-0.30087,-0.29855,-0.29476,-0.28955,-0.28296,-0.27505,-0.26589,-0.25558,-0.24421,-0.2319,-0.21877,-0.20495,-0.19057,-0.17579,-0.16074,-0.14558,-0.13046,-0.11553,-0.10093,-0.086795,-0.073269,-0.060471,-0.048515,-0.037504,-0.027528,-0.018663,-0.010969,-0.0044912,0.00074056,0.0047142,0.0074338,0.0089204,0.0092111,0.008359,0.0064321,0.0035126,-0.00030407,-0.0049109,-0.010191,-0.016018,-0.022258,-0.028776,-0.035428,-0.042073,-0.048569,-0.054776,-0.060561,-0.065795,-0.070358,-0.074138,-0.077037,-0.078966,-0.079851,-0.079632,-0.078264,-0.075716,-0.071973,-0.067035,-0.060919,-0.053654,-0.045286,-0.035871,-0.025479,-0.014192,-0.0021019,0.010692,0.024083,0.037957,0.052197,0.066681,0.081287,0.095893,0.11038,0.12462,0.13851,0.15192,0.16477,0.17694,0.18834,0.19889,0.20852,0.21715,0.22471,0.23117,0.23648,0.24059,0.24349,0.24516,0.24558,0.24475,0.24267,0.23935,0.23481,0.22908,0.22217,0.21413,0.20499,0.1948,0.1836,0.17145,0.15841,0.14454,0.1299,0.11458,0.098641,0.082167,0.065243,0.047958,0.030406,0.012684,-0.0051077,-0.022863,-0.040474,-0.05783,-0.074814,-0.091312,-0.10721,-0.12237,-0.1367,-0.15006,-0.16235,-0.17344,-0.18322,-0.1916,-0.19847,-0.20374,-0.20734,-0.20917,-0.2092,-0.20737,-0.20365,-0.19802,-0.19049,-0.18107,-0.1698,-0.15674,-0.14197,-0.12557,-0.10767,-0.088398,-0.06791,-0.046375,-0.02398,-0.00092601,0.022573,0.046293,0.070002,0.093461,0.11643,0.13866,0.15993,0.17999,0.19862,0.21561,0.23075,0.24388,0.25481,0.26341,0.26956,0.27317,0.27416,0.2725,0.26818,0.2612,0.25161,0.23948,0.22492,0.20803,0.18897,0.16791,0.14503,0.12055,0.09468,0.067663,0.03974,0.011162,-0.017817,-0.046941,-0.07596,-0.10463,-0.1327,-0.15996,-0.18618,-0.21118,-0.23476,-0.25677,-0.27708,-0.29555,-0.3121,-0.32666,-0.33918,-0.34963,-0.35802,-0.36437,-0.36871,-0.37111,-0.37166,-0.37044,-0.36758,-0.36319,-0.35741,-0.35039,-0.34226,-0.33318,-0.32331,-0.31279,-0.30178,-0.2904,-0.27881,-0.26712,-0.25545,-0.24391,-0.23259,-0.22157,-0.21091,-0.20068,-0.19091,-0.18163,-0.17286,-0.16459,-0.15682,-0.14953,-0.1427,-0.13628,-0.13023,-0.12451,-0.11906,-0.11383,-0.10874,-0.10375,-0.098795,-0.09381,-0.088739,-0.083527,-0.078123,-0.072478,-0.066551,-0.060303,-0.053704,-0.046729,-0.039359,-0.031583,-0.023396,-0.014802,-0.0058113,0.0035595,0.013286,0.023336,0.033673,0.044251,0.055021,0.065928,0.076911,0.087907,0.098846,0.10966,0.12027,0.13062,0.14062,0.1502,0.15929,0.16782,0.17574,0.18297,0.18946,0.19517,0.20004,0.20406,0.20718,0.20939,0.21067,0.21104,0.21049,0.20904,0.20671,0.20354,0.19957,0.19485,0.18944,0.18339,0.17678,0.16967,0.16215,0.15428,0.14616,0.13786,0.12947,0.12105,0.1127,0.10449,0.096483,0.088751,0.081357,0.074355,0.067798,0.061727,0.05618,0.051187,0.046771,0.042946,0.039721,0.037096,0.035066,0.033619,0.032736,0.032392,0.032557,0.033198,0.034276,0.035748,0.03757,0.039696,0.042076,0.044663,0.047406,0.050259,0.053174,0.056108,0.059018,0.061865,0.064616,0.06724,0.069712,0.07201,0.074119,0.07603,0.077737,0.079241,0.080548,0.081669,0.082619,0.083419,0.084092,0.084666,0.085169,0.085633,0.086092,0.086577,0.087122,0.087757,0.088511,0.08941,0.090475,0.091725,0.09317,0.094818,0.096667,0.09871,0.10093,0.10331,0.10582,0.10843,0.11109,0.11375,0.11635,0.11885,0.12118,0.12327,0.12505,0.12647,0.12744,0.12791,0.12781,0.12709,0.1257,0.12359,0.12073,0.11708,0.11264,0.10738,0.10132,0.094476,0.086863,0.078522,0.0695,0.059855,0.049656,0.038979,0.02791,0.016544,0.0049792,-0.0066783,-0.01832,-0.029835,-0.041109,-0.052033,-0.062495,-0.072389,-0.081616,-0.090079,-0.097693,-0.10438,-0.11008,-0.11473,-0.1183,-0.12075,-0.12208,-0.12229,-0.1214,-0.11943,-0.11645,-0.11251,-0.10769,-0.10209,-0.095801,-0.088943,-0.08164,-0.074019,-0.066218,-0.058376,-0.050632,-0.043127,-0.035998,-0.029376,-0.023386,-0.018141,-0.013747,-0.010294,-0.0078575,-0.0064988,-0.006261,-0.0071697,-0.0092319,-0.012436,-0.016752,-0.022132,-0.028509,-0.0358,-0.043908,-0.052721,-0.062113,-0.071951,-0.082091,-0.092386,-0.10268,-0.11283,-0.12268,-0.13207,-0.14088,-0.14896,-0.15621,-0.1625,-0.16774,-0.17187,-0.17481,-0.17653,-0.177,-0.17622,-0.17421,-0.17101,-0.16666,-0.16124,-0.15484,-0.14756,-0.13953,-0.13086,-0.12172,-0.11224,-0.10258,-0.092892,-0.083348,-0.074103,-0.065313,-0.057132,-0.049702,-0.043158,-0.037626,-0.033215,-0.030023,-0.02813,-0.027601,-0.028482,-0.030802,-0.034569,-0.039773,-0.046385,-0.054357,-0.063622,-0.074093,-0.08567,-0.098233,-0.11165,-0.12577,-0.14043,-0.15546,-0.17069,-0.18592,-0.20097,-0.21564,-0.22973,-0.24305,-0.25541,-0.26662,-0.27651,-0.28492,-0.29168,-0.29665,-0.29972,-0.30079,-0.29975,-0.29655,-0.29114,-0.28351,-0.27366,-0.26161,-0.24742,-0.23116,-0.21293,-0.19286,-0.17108,-0.14777,-0.1231,-0.097273,-0.070505,-0.043022,-0.01506,0.013138,0.041326,0.069255,0.09668,0.12336,0.14906,0.17357,0.19667,0.21818,0.23793,0.25576,0.27155,0.28521,0.29665,0.30584,0.31276,0.3174,0.31982,0.32008,0.31826,0.31448,0.30888,0.30161,0.29285,0.28279,0.27162,0.25956,0.24683,0.23362,0.22017,0.20668,0.19334,0.18036,0.16789,0.15611,0.14516,0.13514,0.12615,0.11828,0.11156,0.10602,0.10165,0.098439,0.096323,0.095234,0.095081,0.09575,0.097117,0.099037,0.10136,0.10393,0.10657,0.10912,0.11142,0.1133,0.11462,0.11522,0.11498,0.11378,0.11153,0.10816,0.10361,0.09785,0.090873,0.082698,0.073364,0.062936,0.051502,0.03917,0.026068,0.01234,-0.0018528,-0.016339,-0.030937,-0.045458,-0.059712,-0.073509,-0.08666,-0.098986,-0.11032,-0.12049,-0.12937,-0.13682,-0.14274,-0.14705,-0.14968,-0.1506,-0.14978,-0.14725,-0.14303,-0.13719,-0.1298,-0.12096,-0.1108,-0.09945,-0.087061,-0.073799,-0.059838,-0.045357,-0.030541,-0.015575,-0.00064214,0.01408,0.028422,0.042222,0.055333,0.067623,0.078974,0.089288,0.098485,0.10651,0.11331,0.11888,0.12322,0.12635,0.12831,0.12916,0.12897,0.12783,0.12585,0.12313,0.1198,0.11598,0.1118,0.1074,0.1029,0.098417,0.094082,0.090001,0.086273,0.082986,0.080213,0.078013,0.07643,0.075489,0.0752,0.075556,0.07653,0.078082,0.080153,0.082672,0.085552,0.088694,0.091989,0.09532,0.098559,0.10158,0.10425,0.10643,0.10799,0.10881,0.10876,0.10773,0.10563,0.10235,0.097831,0.092005,0.084834,0.076291,0.066372,0.055092,0.042486,0.028607,0.013528,-0.0026563,-0.019838,-0.037889,-0.05667,-0.076027,-0.095794,-0.1158,-0.13586,-0.1558,-0.17544,-0.19458,-0.21306,-0.2307,-0.24734,-0.26284,-0.27705,-0.28986,-0.30116,-0.31087,-0.31893,-0.32528,-0.3299,-0.33278,-0.33395,-0.33343,-0.33128,-0.32756,-0.32237,-0.3158,-0.30797,-0.299,-0.28901,-0.27816,-0.26657,-0.25439,-0.24176,-0.22882,-0.21572,-0.20257,-0.18949,-0.17661,-0.16401,-0.15178,-0.14001,-0.12875,-0.11805,-0.10794,-0.098442,-0.089564,-0.081299,-0.073629,-0.066523,-0.059944,-0.053843,-0.048167,-0.042855,-0.037844,-0.033067,-0.028458,-0.023951,-0.019482,-0.014993,-0.010429,-0.0057415,-0.00089147,0.0041536,0.0094165,0.014911,0.02064,0.026599,0.032771,0.039132,0.045647,0.052276,0.058971,0.065676,0.072335,0.078886,0.085265,0.091409,0.097258,0.10275,0.10783,0.11246,0.11659,0.12018,0.12321,0.12568,0.12756,0.12887,0.12963,0.12985,0.12958,0.12886,0.12774,0.12627,0.12453,0.12258,0.12049,0.11833,0.11616,0.11407,0.1121,0.11031,0.10876,0.10748,0.1065,0.10584,0.1055,0.10549,0.10579,0.10636,0.10717,0.10816,0.10929,0.11046,0.11162,0.11268,0.11355,0.11415,0.11438,0.11416,0.11341,0.11206,0.11003,0.10727,0.10373,0.099374,0.094183,0.08815,0.081282,0.073603,0.065152,0.055983,0.046163,0.035774,0.024908,0.01367,0.0021728,-0.0094636,-0.021114,-0.03265,-0.043944,-0.054867,-0.065295,-0.075111,-0.084203,-0.092472,-0.099828,-0.10619,-0.11151,-0.11572,-0.1188,-0.12073,-0.12151,-0.12116,-0.11971,-0.1172,-0.1137,-0.10927,-0.104,-0.097975,-0.091304,-0.084088,-0.076438,-0.068466,-0.060285,-0.052006,-0.043739,-0.035586,-0.027647,-0.020012,-0.012764,-0.0059754,0.00028916,0.0059772,0.011047,0.015467,0.019217,0.022288,0.024682,0.02641,0.027491,0.027955,0.027838,0.027184,0.026041,0.024462,0.022504,0.020227,0.017691,0.014956,0.012083,0.0091283,0.0061485,0.0031951,0.00031608,-0.0024456,-0.005052,-0.0074707,-0.0096751,-0.011644,-0.013364,-0.014824,-0.016021,-0.016956,-0.017636,-0.018072,-0.018277,-0.018269,-0.018069,-0.017697,-0.017179,-0.016537,-0.015797,-0.014982,-0.014116
1,3,-0.32746,-0.33674,-0.34576,-0.35427,-0.36204,-0.36883,-0.37443,-0.37861,-0.38119,-0.38198,-0.38082,-0.37755,-0.37205,-0.3642,-0.35392,-0.34115,-0.32584,-0.30797,-0.28754,-0.26457,-0.2391,-0.21119,-0.18091,-0.14838,-0.11368,-0.076956,-0.038331,0.0020468,0.044027,0.087452,0.13216,0.17799,0.22477,0.27235,0.32057,0.36927,0.4183,0.46751,0.51678,0.56597,0.61497,0.66366,0.71194,0.75972,0.80691,0.85343,0.89921,0.9442,0.98834,1.0316,1.0739,1.1152,1.1555,1.1948,1.233,1.2702,1.3063,1.3412,1.3751,1.4078,1.4394,1.4699,1.4992,1.5274,1.5545,1.5804,1.6051,1.6287,1.6511,1.6723,1.6924,1.7112,1.7288,1.7452,1.7602,1.774,1.7865,1.7976,1.8073,1.8155,1.8222,1.8274,1.8309,1.8327,1.8328,1.831,1.8273,1.8215,1.8137,1.8037,1.7915,1.7769,1.7599,1.7404,1.7184,1.6938,1.6664,1.6364,1.6037,1.5682,1.5299,1.4889,1.4451,1.3987,1.3497,1.2981,1.2441,1.1878,1.1292,1.0686,1.0061,0.94188,0.87606,0.80887,0.7405,0.67115,0.60102,0.53032,0.45925,0.388,0.31678,0.24578,0.17517,0.10513,0.035814,-0.032626,-0.10006,-0.16635,-0.23141,-0.29513,-0.35745,-0.41828,-0.47759,-0.53533,-0.59148,-0.64602,-0.69896,-0.7503,-0.80005,-0.84824,-0.89489,-0.94004,-0.98372,-1.026,-1.0668,-1.1063,-1.1445,-1.1813,-1.2169,-1.2512,-1.2842,-1.316,-1.3465,-1.3757,-1.4036,-1.4301,-1.4553,-1.479,-1.5012,-1.5219,-1.5409,-1.5582,-1.5738,-1.5875,-1.5993,-1.6092,-1.617,-1.6228,-1.6266,-1.6282,-1.6277,-1.6251,-1.6204,-1.6137,-1.6051,-1.5945,-1.5822,-1.5683,-1.5528,-1.5359,-1.5179,-1.4989,-1.479,-1.4585,-1.4377,-1.4166,-1.3955,-1.3747,-1.3543,-1.3346,-1.3156,-1.2976,-1.2808,-1.2652,-1.251,-1.2383,-1.2271,-1.2174,-1.2094,-1.2029,-1.1979,-1.1944,-1.1923,-1.1914,-1.1916,-1.1928,-1.1947,-1.1972,-1.2001,-1.2031,-1.2061,-1.2087,-1.2109,-1.2122,-1.2125,-1.2116,-1.2093,-1.2053,-1.1994,-1.1916,-1.1815,-1.1691,-1.1543,-1.1369,-1.1169,-1.0941,-1.0687,-1.0404,-1.0095,-0.97577,-0.9394,-0.90041,-0.85891,-0.81499,-0.76878,-0.72043,-0.67009,-0.61794,-0.56416,-0.50895,-0.45251,-0.39507,-0.33683,-0.27805,-0.21893,-0.15972,-0.10066,-0.041967,0.016123,0.073385,0.1296,0.18457,0.23808,0.28996,0.34002,0.3881,0.43406,0.47776,0.5191,0.55797,0.5943,0.62803,0.6591,0.68751,0.71324,0.7363,0.75673,0.77456,0.78986,0.8027,0.81318,0.82139,0.82744,0.83147,0.83359,0.83396,0.8327,0.82998,0.82594,0.82073,0.81452,0.80745,0.79967,0.79133,0.78257,0.77352,0.76432,0.75509,0.74594,0.73696,0.72827,0.71993,0.71203,0.70462,0.69776,0.6915,0.68587,0.68088,0.67656,0.67291,0.66992,0.6676,0.66591,0.66485,0.66437,0.66446,0.66508,0.66618,0.66774,0.66972,0.67206,0.67474,0.67772,0.68096,0.68443,0.68809,0.69192,0.69589,0.69997,0.70416,0.70843,0.71278,0.71718,0.72165,0.72619,0.73078,0.73545,0.7402,0.74504,0.75,0.7551,0.76035,0.76578,0.77143,0.77732,0.7835,0.78998,0.79683,0.80406,0.81173,0.81987,0.82852,0.83773,0.84754,0.85797,0.86906,0.88083,0.89331,0.90651,0.92044,0.93508,0.95042,0.96642,0.98303,1.0002,1.0178,1.0358,1.0541,1.0724,1.0907,1.1087,1.1262,1.1431,1.159,1.1737,1.187,1.1984,1.2078,1.2148,1.2191,1.2204,1.2183,1.2126,1.203,1.1892,1.1709,1.148,1.1202,1.0875,1.0496,1.0066,0.9583,0.90488,0.84638,0.78293,0.71474,0.64204,0.56515,0.48442,0.40026,0.31313,0.22353,0.13201,0.039162,-0.054413,-0.14807,-0.24116,-0.33301,-0.42295,-0.51031,-0.59442,-0.67467,-0.75042,-0.82111,-0.8862,-0.94521,-0.99769,-1.0433,-1.0817,-1.1127,-1.1361,-1.1518,-1.1599,-1.1604,-1.1535,-1.1394,-1.1184,-1.091,-1.0576,-1.0187,-0.97493,-0.92693,-0.87539,-0.82103,-0.76461,-0.70691,-0.64871,-0.5908,-0.53396,-0.47894,-0.42649,-0.37728,-0.33198,-0.29118,-0.25541,-0.22514,-0.20078,-0.18263,-0.17094,-0.16586,-0.16747,-0.17574,-0.19058,-0.21182,-0.23919,-0.27235,-0.31091,-0.3544,-0.40229,-0.45401,-0.50894,-0.56643,-0.62581,-0.68639,-0.74747,-0.80836,-0.86837,-0.92685,-0.98317,-1.0367,-1.087,-1.1334,-1.1756,-1.2132,-1.2458,-1.2732,-1.2953,-1.3119,-1.323,-1.3286,-1.3289,-1.3239,-1.3141,-1.2996,-1.2808,-1.2582,-1.232,-1.2029,-1.1713,-1.1378,-1.1028,-1.067,-1.0308,-0.99472,-0.95934,-0.9251,-0.89245,-0.86179,-0.83348,-0.80783,-0.78511,-0.76551,-0.74918,-0.73619,-0.72658,-0.7203,-0.71725,-0.71726,-0.72014,-0.7256,-0.73335,-0.74301,-0.7542,-0.76649,-0.77944,-0.79257,-0.80542,-0.81749,-0.82832,-0.83744,-0.84441,-0.8488,-0.85023,-0.84835,-0.84284,-0.83345,-0.81997,-0.80223,-0.78016,-0.7537,-0.72289,-0.6878,-0.64858,-0.60543,-0.5586,-0.50841,-0.4552,-0.39937,-0.34137,-0.28166,-0.22073,-0.15911,-0.097307,-0.035863,0.024695,0.08385,0.1411,0.19596,0.248,0.29679,0.34197,0.38321,0.42025,0.45286,0.4809,0.50426,0.52291,0.53687,0.54622,0.55111,0.55174,0.54836,0.54127,0.53082,0.51739,0.50141,0.48333,0.46361,0.44274,0.42122,0.39954,0.3782,0.35767,0.33843,0.32093,0.30556,0.29272,0.28277,0.276,0.27268,0.27303,0.27723,0.28541,0.29764,0.31395,0.33434,0.35874,0.38705,0.41912,0.45477,0.4938,0.53595,0.58094,0.62849,0.67826,0.72993,0.78316,0.83758,0.89283,0.94856,1.0044,1.06,1.115,1.169,1.2218,1.273,1.3222,1.3693,1.4139,1.4558,1.4946,1.5303,1.5625,1.5911,1.6159,1.6367,1.6534,1.6658,1.6739,1.6775,1.6766,1.671,1.6609,1.6461,1.6265,1.6024,1.5736,1.5402,1.5023,1.46,1.4134,1.3626,1.3078,1.2491,1.1868,1.1211,1.0521,0.98029,0.90579,0.82893,0.75003,0.66942,0.58743,0.50443,0.42077,0.33683,0.25297,0.16958,0.087027,0.0056918,-0.074063,-0.15188,-0.22742,-0.30034,-0.37033,-0.43711,-0.5004,-0.55996,-0.61556,-0.66702,-0.71417,-0.75689,-0.79507,-0.82866,-0.85762,-0.88195,-0.90168,-0.91688,-0.92765,-0.9341,-0.9364,-0.93473,-0.9293,-0.92033,-0.90807,-0.89279,-0.87478,-0.85433,-0.83176,-0.80736,-0.78147,-0.7544,-0.72647,-0.69801,-0.6693,-0.64067,-0.61239,-0.58474,-0.55798,-0.53235,-0.50807,-0.48536,-0.46438,-0.4453,-0.42825,-0.41336,-0.40069,-0.39033,-0.38231,-0.37666,-0.37337,-0.37241,-0.37376,-0.37733,-0.38305,-0.39082,-0.40054,-0.41206,-0.42525,-0.43996,-0.45602,-0.47327,-0.49151,-0.51058,-0.53027,-0.55038,-0.57073,-0.59111,-0.61132,-0.63116,-0.65043,-0.66892,-0.68645,-0.70281,-0.71783,-0.73132,-0.7431,-0.753,-0.76087,-0.76655,-0.7699,-0.77079,-0.7691,-0.76473,-0.7576,-0.74762,-0.73474,-0.71893,-0.70017,-0.67846,-0.65382,-0.62629,-0.59596,-0.56291,-0.52726,-0.48914,-0.44873,-0.40622,-0.36181,-0.31573,-0.26826,-0.21965,-0.1702,-0.12022,-0.070033,-0.019962,0.029652,0.078468,0.12614,0.17234,0.21673,0.25898,0.2988,0.33589,0.36998,0.40083,0.42822,0.45198,0.47194,0.48799,0.50005,0.50808,0.51208,0.51209,0.50818,0.50047,0.48911,0.4743,0.45625,0.43521,0.41147,0.38533,0.35711,0.32715,0.29581,0.26343,0.23037,0.197,0.16366,0.13069,0.098419,0.06715,0.037169,0.0087372,-0.017911,-0.04257,-0.065062,-0.085243,-0.103,-0.11824,-0.13092,-0.14101,-0.14852,-0.15347,-0.15593,-0.15596,-0.15366,-0.14915,-0.14255,-0.13401,-0.12365,-0.11165,-0.098153,-0.083313,-0.067285,-0.050218,-0.032253,-0.013524,0.005847,0.025748,0.04608,0.066759,0.087712,0.10888,0.13023,0.15172,0.17334,0.19509,0.21698,0.23903,0.26125,0.2837,0.3064,0.3294,0.35274,0.37648,0.40065,0.42528,0.45041,0.47606,0.50224,0.52896,0.55619,0.5839,0.61207,0.64061,0.66946,0.69851,0.72765,0.75675,0.78565,0.81418,0.84215,0.86935,0.89556,0.92055,0.94406,0.96582,0.98558,1.003,1.0179,1.0299,1.0387,1.0441,1.0458,1.0435,1.0369,1.0257,1.0099,0.98911,0.96322,0.93205,0.89551,0.85349,0.80596,0.75291,0.69437,0.63043,0.5612,0.48685,0.40761,0.32372,0.2355,0.1433,0.047517,-0.051425,-0.15305,-0.25685,-0.36229,-0.4688,-0.5758,-0.68268,-0.78884,-0.89363,-0.99644,-1.0967,-1.1936,-1.2868,-1.3756,-1.4595,-1.5379,-1.6104,-1.6765,-1.7358,-1.7879,-1.8327,-1.8698,-1.899,-1.9202,-1.9333,-1.9383,-1.9353,-1.9243,-1.9055,-1.8792,-1.8455,-1.8048,-1.7575,-1.704,-1.6446,-1.5799,-1.5105,-1.4367,-1.3593,-1.2787,-1.1955,-1.1104,-1.0239,-0.93659,-0.84907,-0.76188,-0.67557,-0.59064,-0.50759,-0.42688,-0.34892,-0.2741,-0.20277,-0.13523,-0.071734,-0.012506,0.042285,0.092514,0.1381,0.179,0.21522,0.24681,0.27386,0.29647,0.31481,0.32907,0.33945,0.34619,0.34956,0.34983,0.34729,0.34224,0.33499,0.32586,0.31515,0.30318,0.29026,0.27667,0.26272,0.24868,0.23481,0.22135,0.20855,0.19662,0.18574,0.17611,0.16787,0.16117,0.15613,0.15286,0.15142,0.1519,0.15433,0.15873,0.16513,0.17352,0.18386,0.19612,0.21025,0.22616,0.24378,0.26299,0.2837,0.30576,0.32904,0.35338,0.37863,0.40461,0.43115,0.45805,0.48512,0.51217,0.539,0.5654,0.59119,0.61615,0.6401,0.66284,0.6842,0.70399,0.72206,0.73824,0.75241,0.76443,0.77419,0.78159,0.78657,0.78905,0.78899,0.78638,0.78121,0.7735,0.76328,0.7506,0.73555,0.7182,0.69868,0.6771,0.6536,0.62835,0.6015,0.57323,0.54373,0.51318,0.4818,0.44977,0.4173,0.3846,0.35185,0.31925,0.287,0.25526,0.2242,0.19399,0.16477,0.13666,0.10977,0.084214,0.060061,0.037376,0.016203,-0.0034307,-0.021516,-0.038062,-0.053093,-0.066653,-0.078798,-0.089601,-0.099147,-0.10753,-0.11487,-0.12127,-0.12685,-0.13176,-0.13612,-0.14007,-0.14374,-0.14727,-0.15079,-0.15443,-0.15831,-0.16253,-0.1672,-0.17241,-0.17824,-0.18475,-0.19199,-0.2,-0.20879,-0.21837,-0.22872,-0.23981,-0.2516,-0.26401,-0.27697,-0.29039,-0.30414,-0.31812,-0.33218,-0.34619,-0.35998,-0.37339,-0.38626,-0.39842,-0.40969,-0.41991,-0.4289,-0.43651,-0.44257,-0.44694,-0.44949,-0.45008,-0.44862,-0.445,-0.43915,-0.43103,-0.42058,-0.40781,-0.39272,-0.37534,-0.35572,-0.33394,-0.3101,-0.28433,-0.25675,-0.22754,-0.19688,-0.16496,-0.132,-0.09823,-0.063884,-0.029215,0.005522,0.040064,0.074148,0.10751,0.13989,0.17103,0.20069,0.22862,0.25461,0.27845,0.29994,0.31893,0.33525,0.3488,0.35946,0.36717,0.3719,0.37361,0.37234,0.36814,0.36107,0.35126,0.33884,0.32398,0.30688,0.28776,0.26688,0.24451,0.22094,0.19648,0.17146,0.14619,0.12104,0.096324,0.072395,0.049578,0.028194,0.0085419,-0.0090961,-0.024466,-0.037342,-0.047533,-0.054887,-0.05929,-0.060672,-0.059008,-0.054319,-0.046675,-0.036189,-0.023024,-0.0073871,0.010474,0.030272,0.051681,0.074347,0.097886,0.12189,0.14595,0.16963,0.1925,0.21412,0.23407,0.25195,0.26738,0.27998,0.28945,0.29548,0.29784,0.29632,0.29077,0.28108,0.26721,0.24917,0.227,0.20081,0.17078,0.1371,0.10002,0.059851,0.016917,-0.028414,-0.075747,-0.12467,-0.17473,-0.22551,-0.27654,-0.32737,-0.37756,-0.42668,-0.4743,-0.52003,-0.56351,-0.60438,-0.64235,-0.67714,-0.70852,-0.7363,-0.76032,-0.78048,-0.79671,-0.80898,-0.81731,-0.82175,-0.8224,-0.81937,-0.81282,-0.80294,-0.78994,-0.77405,-0.75552,-0.73461,-0.71158,-0.68673,-0.66032,-0.63263,-0.60394,-0.57451,-0.54458,-0.51439,-0.48416,-0.45409,-0.42435,-0.3951,-0.36647,-0.33856,-0.31148,-0.28527,-0.25997,-0.23561,-0.21219,-0.18969,-0.16807,-0.1473,-0.12731,-0.10805,-0.089433,-0.071403,-0.053886,-0.036812,-0.02012,-0.0037543,0.012331,0.028169,0.043782,0.059177,0.074346,0.089268,0.1039,0.1182,0.13209,0.1455,0.15832,0.17047,0.18182,0.19226,0.20168,0.20995,0.21695,0.22258,0.22672,0.22929,0.2302,0.2294,0.22685,0.22251,0.21641,0.20857,0.19905,0.18793,0.17533,0.1614,0.14631,0.13025,0.11345,0.096151,0.078625,0.061152,0.04403,0.027563,0.012062,-0.0021631,-0.014806,-0.025571,-0.034176,-0.04036,-0.043885,-0.044544,-0.04216,-0.036597,-0.027757,-0.015588,-8.2951e-05,0.018717,0.040723,0.065795,0.093745,0.12434,0.1573,0.19229,0.22896,0.26692,0.30572,0.34492,0.38405,0.42262,0.46014,0.49612,0.53007,0.56154,0.59005,0.61521,0.63661,0.6539,0.66679,0.67502,0.67838,0.67673,0.66998,0.6581,0.64114,0.61918,0.59239,0.56099,0.52524,0.48548,0.44209,0.39549,0.34614,0.29454,0.24123,0.18674,0.13165,0.076521,0.021932,-0.03155,-0.08337,-0.13299,-0.17991,-0.22364,-0.26375,-0.29984,-0.33156,-0.35861,-0.38075,-0.3978,-0.40962,-0.41615,-0.41738,-0.41337,-0.40423,-0.39014,-0.37131,-0.34804,-0.32063,-0.28948,-0.25498,-0.21759,-0.17779,-0.13607,-0.092952,-0.048977,-0.004683,0.039388,0.082698,0.12472,0.16494,0.20286,0.23802,0.26998,0.29834,0.32272,0.34282,0.35833,0.36904,0.37475,0.37532,0.37068,0.36078,0.34565,0.32536,0.30002,0.26982,0.23495,0.1957,0.15238,0.10532,0.054937,0.0016405,-0.054106,-0.11182,-0.17098,-0.23107,-0.29155,-0.35184,-0.41141,-0.46967,-0.52609,-0.58012,-0.63122,-0.6789,-0.72266,-0.76206,-0.79668,-0.82615,-0.85015,-0.86838,-0.88063,-0.88672,-0.88655,-0.88006,-0.86725,-0.84821,-0.82307,-0.79202,-0.75533,-0.7133,-0.66632,-0.6148,-0.55921,-0.50008,-0.43794,-0.3734,-0.30704,-0.2395,-0.17141,-0.10341,-0.036143,0.029775,0.093737,0.15516,0.21351,0.26826,0.31895,0.36517,0.40656,0.44282,0.4737,0.49903,0.51869,0.53264,0.54089,0.54353,0.5407,0.53259,0.51948,0.50167,0.47951,0.45341,0.4238,0.39114,0.35592,0.31865,0.27983,0.23999,0.19963,0.15926,0.11936,0.0804,0.042814,0.0070043,-0.026662,-0.057859,-0.086304,-0.11176,-0.13404,-0.15301,-0.16857,-0.18069,-0.18936,-0.19464,-0.19662,-0.19544,-0.19126,-0.1843,-0.17478,-0.16295,-0.1491,-0.13351,-0.11648,-0.098312,-0.079309,-0.059768,-0.039978,-0.020213,-0.0007313,0.018229,0.036455,0.053755,0.069969,0.084963,0.098632,0.1109,0.12173,0.13109,0.139,0.1455,0.15064,0.15451,0.1572,0.15882,0.15952,0.15941,0.15865,0.15737,0.15573,0.15385,0.15187,0.14992,0.14809,0.1465,0.14521,0.14429,0.14378,0.14371,0.14408,0.14489,0.14609,0.14766,0.14953,0.15161,0.15384,0.15611,0.15834,0.1604,0.16221,0.16365,0.16463,0.16506,0.16485,0.16392,0.16221,0.15968,0.15628,0.152,0.14684,0.1408,0.13391,0.12623,0.11779,0.10868,0.098984,0.088785,0.078188,0.067299,0.056229,0.04509,0.033994,0.023046,0.012351,0.0019994,-0.0079234,-0.017347,-0.026212,-0.034478,-0.042118,-0.04912,-0.055494,-0.061263,-0.066469,-0.071168,-0.075433,-0.079348,-0.083011,-0.086528,-0.090014,-0.093587,-0.09737,-0.10148,-0.10604,-0.11117,-0.11696,-0.12351,-0.13091,-0.13921,-0.14847,-0.15872,-0.16996,-0.18219,-0.19536,-0.20943,-0.22431,-0.2399,-0.25608,-0.2727,-0.2896,-0.30661,-0.32352,-0.34014,-0.35624,-0.37161,-0.38603,-0.39925,-0.41108,-0.42129,-0.42968,-0.43608,-0.44029,-0.4422,-0.44165,-0.43857,-0.43288,-0.42455,-0.41357,-0.39996,-0.38379,-0.36515,-0.34416,-0.32098,-0.29579,-0.2688,-0.24025,-0.2104,-0.1795,-0.14785,-0.11574,-0.08347,-0.05134,-0.019646,0.011322,0.041288,0.069989,0.097181,0.12264,0.14618,0.16762,0.18682,0.20367,0.2181,0.23005,0.23952,0.24651,0.25107,0.25327,0.25322,0.25102,0.24684,0.24084,0.23318,0.22405,0.21367,0.20222,0.18992,0.17697,0.16356,0.14988,0.13613,0.12246,0.10903,0.095976,0.083426,0.07148,0.060223,0.049722,0.040025,0.031163,0.023151,0.015987,0.0096546,0.0041271,-0.00063441
1,4,0.040438,-0.010671,-0.062088,-0.11401,-0.16662,-0.22008,-0.27454,-0.33012,-0.3869,-0.44495,-0.50427,-0.56487,-0.6267,-0.68967,-0.75366,-0.81851,-0.88405,-0.95004,-1.0163,-1.0824,-1.1482,-1.2134,-1.2776,-1.3405,-1.4018,-1.4612,-1.5183,-1.5728,-1.6245,-1.6731,-1.7184,-1.76,-1.798,-1.832,-1.8621,-1.888,-1.9098,-1.9275,-1.941,-1.9504,-1.9559,-1.9574,-1.9552,-1.9494,-1.9402,-1.9277,-1.9123,-1.894,-1.8731,-1.8499,-1.8245,-1.7971,-1.768,-1.7373,-1.7052,-1.672,-1.6376,-1.6024,-1.5663,-1.5295,-1.4921,-1.4541,-1.4157,-1.3767,-1.3374,-1.2976,-1.2574,-1.2169,-1.1759,-1.1345,-1.0928,-1.0506,-1.008,-0.96506,-0.92173,-0.87803,-0.83401,-0.78971,-0.74516,-0.70044,-0.65559,-0.61069,-0.56583,-0.52108,-0.47653,-0.43226,-0.38837,-0.34494,-0.30205,-0.25977,-0.21817,-0.17731,-0.13723,-0.097962,-0.059535,-0.021952,0.01479,0.050711,0.085839,0.12022,0.15389,0.18691,0.21935,0.25127,0.28272,0.31376,0.34445,0.37484,0.40494,0.43477,0.46433,0.49361,0.52254,0.55108,0.57912,0.60657,0.63327,0.65908,0.68381,0.70727,0.72924,0.7495,0.76781,0.78393,0.79761,0.80862,0.81672,0.82169,0.82334,0.82147,0.81595,0.80663,0.79344,0.77631,0.75525,0.73028,0.70147,0.66896,0.6329,0.59351,0.55105,0.50582,0.45816,0.40846,0.35712,0.3046,0.25136,0.19789,0.1447,0.092309,0.041228,-0.0080282,-0.054952,-0.099054,-0.13987,-0.17694,-0.20988,-0.2383,-0.26187,-0.28032,-0.2934,-0.30095,-0.30282,-0.29896,-0.28937,-0.27408,-0.2532,-0.22692,-0.19545,-0.15908,-0.11812,-0.072978,-0.024062,0.02816,0.083187,0.14049,0.19951,0.25968,0.32041,0.38111,0.44119,0.50007,0.55717,0.61195,0.66387,0.71244,0.75721,0.79775,0.83369,0.86471,0.89054,0.91096,0.92582,0.93501,0.9385,0.9363,0.92851,0.91525,0.89672,0.87316,0.84489,0.81222,0.77557,0.73534,0.69199,0.64601,0.5979,0.54819,0.49739,0.44606,0.39471,0.34387,0.29405,0.24575,0.19942,0.15551,0.11442,0.076517,0.042125,0.011529,-0.015033,-0.037371,-0.055341,-0.068849,-0.077851,-0.082347,-0.082386,-0.078061,-0.069507,-0.056901,-0.040455,-0.020413,0.0029472,0.029325,0.058397,0.089821,0.12324,0.15829,0.19461,0.23181,0.26952,0.3074,0.34506,0.38219,0.41843,0.4535,0.48709,0.51894,0.5488,0.57645,0.6017,0.62439,0.64438,0.66155,0.67582,0.68714,0.69547,0.70083,0.70322,0.70271,0.69936,0.69327,0.68456,0.67337,0.65985,0.64417,0.62653,0.60713,0.58619,0.56392,0.54056,0.51636,0.49155,0.46637,0.44109,0.41593,0.39113,0.36694,0.34356,0.32122,0.30011,0.28042,0.26232,0.24596,0.23145,0.21892,0.20844,0.20008,0.19386,0.1898,0.18787,0.18804,0.19023,0.19434,0.20025,0.20781,0.21685,0.22719,0.23861,0.25088,0.26376,0.277,0.29033,0.30349,0.3162,0.32818,0.33916,0.34889,0.3571,0.36356,0.36803,0.37031,0.3702,0.36754,0.36219,0.35403,0.34296,0.32894,0.31192,0.2919,0.26892,0.24303,0.21431,0.18289,0.14889,0.11249,0.073873,0.033252,-0.0091446,-0.053068,-0.098256,-0.14443,-0.19132,-0.23862,-0.28605,-0.3333,-0.38008,-0.42611,-0.47111,-0.5148,-0.55693,-0.59724,-0.63553,-0.67157,-0.70519,-0.73623,-0.76454,-0.79003,-0.8126,-0.8322,-0.84881,-0.86244,-0.87311,-0.8809,-0.8859,-0.88824,-0.88805,-0.88553,-0.88086,-0.87428,-0.86604,-0.85638,-0.8456,-0.83398,-0.82181,-0.80942,-0.79709,-0.78515,-0.77387,-0.76357,-0.75451,-0.74695,-0.74113,-0.73728,-0.73558,-0.7362,-0.73926,-0.74486,-0.75307,-0.7639,-0.77734,-0.79334,-0.8118,-0.8326,-0.85557,-0.8805,-0.90716,-0.93527,-0.96453,-0.9946,-1.0252,-1.0558,-1.0861,-1.1158,-1.1443,-1.1713,-1.1964,-1.2191,-1.2391,-1.2559,-1.2692,-1.2787,-1.2841,-1.285,-1.2812,-1.2725,-1.2587,-1.2397,-1.2155,-1.1859,-1.151,-1.1109,-1.0657,-1.0154,-0.96037,-0.90077,-0.83692,-0.76913,-0.69776,-0.6232,-0.54588,-0.46625,-0.38477,-0.30193,-0.21822,-0.13416,-0.050238,0.033032,0.11516,0.19565,0.27404,0.34989,0.42277,0.49229,0.5581,0.61986,0.6773,0.73016,0.77826,0.82144,0.8596,0.89267,0.92063,0.94354,0.96147,0.97454,0.98292,0.98682,0.9865,0.98223,0.97433,0.96314,0.94902,0.93237,0.91356,0.89302,0.87116,0.84839,0.82512,0.80175,0.77867,0.75625,0.73483,0.71475,0.69628,0.6797,0.66523,0.65306,0.64335,0.6362,0.63169,0.62985,0.63067,0.63411,0.64008,0.64845,0.65907,0.67176,0.68631,0.70248,0.72,0.73862,0.75803,0.77796,0.79811,0.81817,0.83788,0.85693,0.87508,0.89208,0.90769,0.92172,0.934,0.94437,0.95273,0.95899,0.9631,0.96506,0.96487,0.96259,0.95832,0.95215,0.94424,0.93475,0.92387,0.91183,0.89884,0.88515,0.871,0.85665,0.84235,0.82834,0.81487,0.80215,0.7904,0.7798,0.77051,0.76266,0.75634,0.75163,0.74856,0.74712,0.74725,0.74889,0.75191,0.75615,0.76142,0.76749,0.77411,0.78099,0.78784,0.79432,0.8001,0.80483,0.80816,0.80975,0.80925,0.80633,0.80068,0.79202,0.78009,0.76466,0.74554,0.7226,0.69572,0.66486,0.62999,0.59118,0.54851,0.50212,0.45222,0.39903,0.34284,0.28399,0.22283,0.15976,0.095217,0.029645,-0.036484,-0.10269,-0.16849,-0.23338,-0.29691,-0.35858,-0.41797,-0.47464,-0.5282,-0.5783,-0.62461,-0.66686,-0.70482,-0.73833,-0.76725,-0.7915,-0.81109,-0.82603,-0.83642,-0.8424,-0.84415,-0.84192,-0.83597,-0.82661,-0.81418,-0.79907,-0.78165,-0.76233,-0.74153,-0.71965,-0.69712,-0.67434,-0.65168,-0.62953,-0.60821,-0.58804,-0.5693,-0.55221,-0.53698,-0.52376,-0.51267,-0.50376,-0.49706,-0.49255,-0.49016,-0.48979,-0.49131,-0.49454,-0.49928,-0.50529,-0.51235,-0.52017,-0.52849,-0.53703,-0.54551,-0.55366,-0.5612,-0.56788,-0.57348,-0.57778,-0.5806,-0.58176,-0.58116,-0.57867,-0.57426,-0.56787,-0.55952,-0.54923,-0.53708,-0.52316,-0.50759,-0.49051,-0.47211,-0.45256,-0.43206,-0.41082,-0.38907,-0.36702,-0.34489,-0.3229,-0.30126,-0.28016,-0.25978,-0.24028,-0.22181,-0.20449,-0.18842,-0.17368,-0.16031,-0.14835,-0.13781,-0.12866,-0.12086,-0.11436,-0.10909,-0.10495,-0.10183,-0.099638,-0.098237,-0.097506,-0.097315,-0.097536,-0.09804,-0.098705,-0.099413,-0.10005,-0.10052,-0.10072,-0.10057,-0.099987,-0.098915,-0.097293,-0.095071,-0.09221,-0.088675,-0.084438,-0.079476,-0.073768,-0.067297,-0.060048,-0.052004,-0.043151,-0.033473,-0.022952,-0.011571,0.00069048,0.013851,0.027932,0.042952,0.058929,0.075878,0.093812,0.11273,0.13265,0.15354,0.17539,0.19818,0.22186,0.24638,0.27167,0.29765,0.32422,0.35126,0.37865,0.40624,0.43389,0.4614,0.48861,0.51532,0.54132,0.56641,0.59038,0.61301,0.63408,0.65339,0.67072,0.68587,0.69867,0.70893,0.7165,0.72122,0.72299,0.72169,0.71724,0.70961,0.69874,0.68465,0.66735,0.64689,0.62336,0.59686,0.56752,0.5355,0.50098,0.46417,0.42531,0.38463,0.34241,0.29894,0.25451,0.20945,0.16408,0.11873,0.073731,0.029427,-0.013847,-0.055757,-0.095977,-0.13419,-0.1701,-0.2034,-0.23384,-0.26115,-0.28513,-0.30555,-0.32225,-0.33507,-0.34391,-0.34867,-0.3493,-0.34577,-0.3381,-0.32633,-0.31052,-0.2908,-0.26728,-0.24014,-0.20957,-0.17577,-0.139,-0.099501,-0.057564,-0.013479,0.032448,0.0799,0.12856,0.17809,0.22817,0.27847,0.32868,0.37848,0.42757,0.47566,0.52248,0.56776,0.61129,0.65282,0.69217,0.72915,0.76362,0.79542,0.82446,0.85062,0.87384,0.89405,0.91119,0.92524,0.93616,0.94395,0.94858,0.95005,0.94836,0.94348,0.93541,0.92414,0.90963,0.89187,0.87082,0.84643,0.81866,0.78745,0.75273,0.71446,0.67256,0.62697,0.57764,0.52452,0.46757,0.40677,0.34211,0.27363,0.20135,0.12537,0.045779,-0.037271,-0.1236,-0.21298,-0.30516,-0.39983,-0.49663,-0.59518,-0.69504,-0.79575,-0.89678,-0.9976,-1.0976,-1.1963,-1.2929,-1.387,-1.4777,-1.5645,-1.6468,-1.7239,-1.7951,-1.86,-1.918,-1.9685,-2.0112,-2.0455,-2.0712,-2.0879,-2.0955,-2.0937,-2.0826,-2.062,-2.0321,-1.9931,-1.9451,-1.8884,-1.8235,-1.7507,-1.6707,-1.5838,-1.4908,-1.3924,-1.2892,-1.1819,-1.0714,-0.95846,-0.84377,-0.72818,-0.61247,-0.49739,-0.38369,-0.27208,-0.16323,-0.057756,0.043764,0.14082,0.23295,0.31977,0.40096,0.47627,0.54553,0.60863,0.66553,0.71627,0.76096,0.79977,0.83293,0.86073,0.88352,0.90167,0.91562,0.92584,0.93281,0.93705,0.93908,0.93943,0.93864,0.93721,0.93567,0.93449,0.93414,0.93504,0.93756,0.94207,0.94885,0.95815,0.97016,0.98502,1.0028,1.0235,1.0472,1.0736,1.1028,1.1344,1.1683,1.2041,1.2415,1.2801,1.3195,1.3593,1.399,1.4382,1.4763,1.5128,1.5473,1.5793,1.6083,1.6338,1.6553,1.6726,1.6852,1.6927,1.6949,1.6915,1.6823,1.6671,1.6459,1.6185,1.585,1.5454,1.4999,1.4485,1.3914,1.329,1.2615,1.1892,1.1126,1.032,0.94789,0.86078,0.77116,0.67954,0.58647,0.4925,0.3982,0.30411,0.21082,0.11885,0.02877,-0.05891,-0.14368,-0.22505,-0.30258,-0.37582,-0.4444,-0.50796,-0.56618,-0.61878,-0.66554,-0.70628,-0.74084,-0.76914,-0.79113,-0.80683,-0.81629,-0.8196,-0.81693,-0.80848,-0.79448,-0.77523,-0.75107,-0.72237,-0.68955,-0.65304,-0.61333,-0.57093,-0.52637,-0.48018,-0.43294,-0.38522,-0.33757,-0.29058,-0.2448,-0.20078,-0.15904,-0.12007,-0.084355,-0.052306,-0.024315,-0.00071947,0.018193,0.032189,0.041093,0.044787,0.043214,0.036379,0.024347,0.0072438,-0.014749,-0.041392,-0.072396,-0.10742,-0.14608,-0.18796,-0.2326,-0.27952,-0.32822,-0.37817,-0.42885,-0.47972,-0.53027,-0.57997,-0.62832,-0.67484,-0.71908,-0.76062,-0.79907,-0.83407,-0.86533,-0.89258,-0.91561,-0.93424,-0.94836,-0.95789,-0.96281,-0.96313,-0.95894,-0.95033,-0.93746,-0.92052,-0.89973,-0.87536,-0.84768,-0.817,-0.78366,-0.74799,-0.71037,-0.67114,-0.63069,-0.58937,-0.54757,-0.50563,-0.46389,-0.4227,-0.38236,-0.34316,-0.30538,-0.26926,-0.23501,-0.20282,-0.17284,-0.1452,-0.11999,-0.097273,-0.07707,-0.059378,-0.044161,-0.031353,-0.020861,-0.012562,-0.0063101,-0.0019368,0.00074759,0.0019503,0.0018935,0.00081145,-0.0010523,-0.0034481,-0.0061236,-0.0088264,-0.011307,-0.013324,-0.014642,-0.015042,-0.014316,-0.012276,-0.008754,-0.0036029,0.0033001,0.012052,0.022724,0.035358,0.049969,0.066543,0.085039,0.10539,0.12749,0.15123,0.17645,0.203,0.23068,0.25929,0.28861,0.31842,0.34847,0.37852,0.40834,0.43767,0.46627,0.49393,0.5204,0.5455,0.56902,0.5908,0.61067,0.62851,0.6442,0.65767,0.66885,0.6777,0.68422,0.68842,0.69033,0.69002,0.68756,0.68306,0.67664,0.66843,0.65858,0.64724,0.63458,0.62078,0.606,0.59042,0.5742,0.55751,0.5405,0.52331,0.50607,0.4889,0.47188,0.45509,0.43859,0.42241,0.40656,0.39103,0.3758,0.3608,0.34597,0.33121,0.31643,0.30148,0.28625,0.27058,0.25432,0.23731,0.21939,0.2004,0.18019,0.1586,0.1355,0.11076,0.084271,0.055935,0.025681,-0.0065427,-0.040762,-0.07698,-0.11517,-0.15528,-0.19724,-0.24093,-0.28621,-0.33293,-0.3809,-0.42989,-0.47969,-0.53001,-0.5806,-0.63116,-0.68137,-0.73091,-0.77947,-0.82671,-0.87229,-0.91588,-0.95715,-0.99578,-1.0315,-1.0639,-1.0927,-1.1178,-1.1388,-1.1556,-1.1678,-1.1754,-1.1782,-1.176,-1.1689,-1.1566,-1.1392,-1.1167,-1.089,-1.0563,-1.0187,-0.97617,-0.92895,-0.8772,-0.82111,-0.7609,-0.69681,-0.62913,-0.55814,-0.48413,-0.40745,-0.32842,-0.24739,-0.16472,-0.080764,0.0041011,0.089515,0.17511,0.26054,0.34543,0.42947,0.51231,0.59364,0.67316,0.7506,0.8257,0.89821,0.96793,1.0347,1.0982,1.1584,1.2152,1.2684,1.318,1.3639,1.4059,1.4442,1.4785,1.509,1.5356,1.5583,1.5771,1.592,1.6031,1.6102,1.6134,1.6127,1.6082,1.5997,1.5874,1.5711,1.5509,1.5268,1.4988,1.4668,1.4308,1.391,1.3472,1.2996,1.2482,1.1931,1.1343,1.0721,1.0065,0.9377,0.86598,0.79155,0.71467,0.63566,0.55486,0.47263,0.38938,0.30551,0.22148,0.13775,0.054799,-0.026875,-0.10678,-0.1844,-0.25925,-0.33085,-0.3987,-0.46237,-0.52141,-0.57542,-0.62405,-0.66696,-0.70387,-0.73455,-0.7588,-0.77649,-0.78756,-0.79197,-0.78977,-0.78104,-0.76594,-0.74467,-0.7175,-0.68473,-0.64673,-0.6039,-0.55669,-0.50557,-0.45107,-0.39373,-0.33411,-0.27278,-0.21033,-0.14736,-0.084449,-0.022192,0.038846,0.098112,0.15507,0.20923,0.26012,0.30729,0.35036,0.38897,0.42282,0.45164,0.47523,0.49342,0.50609,0.5132,0.51472,0.51068,0.50119,0.48635,0.46633,0.44136,0.41168,0.37756,0.33931,0.29728,0.25182,0.20331,0.15214,0.098717,0.04345,-0.013248,-0.070965,-0.12929,-0.18783,-0.24618,-0.30398,-0.36085,-0.41646,-0.47048,-0.52261,-0.57256,-0.62009,-0.66497,-0.70697,-0.74593,-0.78168,-0.81409,-0.84305,-0.86847,-0.89027,-0.90843,-0.9229,-0.93367,-0.94076,-0.94417,-0.94396,-0.94015,-0.93282,-0.92202,-0.90784,-0.89037,-0.8697,-0.84592,-0.81916,-0.78953,-0.75715,-0.72216,-0.6847,-0.64491,-0.60296,-0.55901,-0.51322,-0.4658,-0.41693,-0.36681,-0.31566,-0.2637,-0.21117,-0.1583,-0.10534,-0.052539,-0.00016324,0.051529,0.10227,0.15181,0.19988,0.24622,0.29059,0.33276,0.3725,0.4096,0.44388,0.47516,0.5033,0.52817,0.54968,0.56777,0.58239,0.59354,0.60123,0.60551,0.60647,0.60421,0.59887,0.59061,0.57961,0.56607,0.55023,0.53233,0.5126,0.49132,0.46874,0.44515,0.4208,0.39596,0.37088,0.34582,0.32099,0.29662,0.2729,0.25001,0.2281,0.20731,0.18775,0.1695,0.15261,0.13714,0.12309,0.11047,0.099237,0.089358,0.080774,0.073414,0.067194,0.062024
2,1,0.002918,-0.046451,-0.095464,-0.14388,-0.19148,-0.23803,-0.28331,-0.32714,-0.36932,-0.40968,-0.44808,-0.48437,-0.51843,-0.55018,-0.57954,-0.60645,-0.63087,-0.65279,-0.67221,-0.68916,-0.70367,-0.71581,-0.72565,-0.73327,-0.73878,-0.74229,-0.74392,-0.74379,-0.74204,-0.73882,-0.73425,-0.72848,-0.72165,-0.7139,-0.70536,-0.69617,-0.68646,-0.67633,-0.66591,-0.65531,-0.64462,-0.63394,-0.62335,-0.61293,-0.60276,-0.59291,-0.58344,-0.57441,-0.56588,-0.5579,-0.55051,-0.54377,-0.53773,-0.53242,-0.5279,-0.5242,-0.52137,-0.51946,-0.51849,-0.51851,-0.51956,-0.52165,-0.52483,-0.52911,-0.5345,-0.541,-0.54863,-0.55736,-0.56718,-0.57804,-0.58989,-0.60268,-0.61632,-0.63072,-0.64577,-0.66135,-0.67731,-0.69349,-0.70974,-0.72585,-0.74163,-0.75687,-0.77135,-0.78483,-0.79708,-0.80786,-0.81693,-0.82404,-0.82895,-0.83142,-0.83123,-0.82817,-0.82203,-0.81263,-0.7998,-0.78339,-0.76328,-0.73938,-0.71161,-0.67992,-0.64432,-0.60481,-0.56144,-0.51429,-0.46347,-0.40912,-0.35141,-0.29053,-0.2267,-0.16017,-0.091215,-0.020119,0.052807,0.12724,0.20285,0.27928,0.35619,0.43322,0.51002,0.58621,0.66147,0.73544,0.80779,0.8782,0.94636,1.012,1.0748,1.1345,1.191,1.2439,1.2932,1.3386,1.38,1.4173,1.4504,1.4793,1.5038,1.5241,1.54,1.5517,1.5592,1.5626,1.5619,1.5573,1.549,1.5369,1.5215,1.5027,1.4808,1.456,1.4285,1.3985,1.3663,1.332,1.2958,1.2581,1.2189,1.1786,1.1372,1.0951,1.0523,1.0091,0.96565,0.92204,0.87842,0.83492,0.79164,0.74865,0.70605,0.66387,0.62216,0.58094,0.54022,0.50001,0.46029,0.42105,0.38224,0.34383,0.30579,0.26807,0.23062,0.19339,0.15636,0.11948,0.082719,0.046059,0.0094879,-0.026997,-0.063384,-0.09965,-0.13576,-0.17166,-0.20729,-0.24257,-0.27741,-0.31171,-0.34536,-0.37823,-0.41019,-0.44111,-0.47084,-0.49924,-0.52616,-0.55147,-0.57502,-0.59668,-0.61634,-0.63389,-0.64922,-0.66225,-0.67293,-0.68121,-0.68706,-0.69048,-0.6915,-0.69015,-0.68649,-0.68063,-0.67265,-0.66271,-0.65094,-0.63751,-0.62262,-0.60646,-0.58925,-0.5712,-0.55255,-0.53353,-0.51439,-0.49535,-0.47665,-0.4585,-0.44114,-0.42475,-0.40954,-0.39566,-0.38328,-0.37252,-0.36349,-0.35629,-0.35097,-0.34756,-0.34609,-0.34653,-0.34884,-0.35297,-0.35883,-0.36631,-0.37529,-0.38561,-0.39711,-0.40962,-0.42296,-0.43691,-0.45128,-0.46586,-0.48044,-0.4948,-0.50875,-0.52207,-0.53459,-0.54611,-0.55646,-0.56549,-0.57306,-0.57903,-0.58331,-0.58578,-0.58639,-0.58507,-0.58179,-0.57651,-0.56925,-0.56,-0.5488,-0.53568,-0.52068,-0.50388,-0.48533,-0.46512,-0.44332,-0.42002,-0.39531,-0.36928,-0.342,-0.31357,-0.28408,-0.2536,-0.22221,-0.18998,-0.15698,-0.12328,-0.088932,-0.053992,-0.018515,0.01745,0.053855,0.090653,0.1278,0.16524,0.20292,0.2408,0.27881,0.3169,0.35499,0.39301,0.43088,0.46851,0.5058,0.54264,0.57894,0.61456,0.6494,0.6833,0.71616,0.74782,0.77815,0.807,0.83425,0.85976,0.88339,0.90503,0.92454,0.94183,0.9568,0.96936,0.97944,0.98697,0.99193,0.99427,0.99399,0.9911,0.98561,0.97758,0.96704,0.95407,0.93877,0.92122,0.90154,0.87986,0.8563,0.83101,0.80413,0.77583,0.74627,0.71559,0.68397,0.65156,0.61852,0.58501,0.55118,0.51718,0.48313,0.44917,0.41542,0.38199,0.34898,0.31648,0.28457,0.25332,0.2228,0.19304,0.16408,0.13596,0.1087,0.082287,0.056741,0.03205,0.0082007,-0.014827,-0.037058,-0.058521,-0.07925,-0.099279,-0.11865,-0.13739,-0.15555,-0.17316,-0.19025,-0.20687,-0.22305,-0.23881,-0.25417,-0.26916,-0.2838,-0.2981,-0.31207,-0.32571,-0.33903,-0.35201,-0.36466,-0.37695,-0.38889,-0.40045,-0.41161,-0.42236,-0.43267,-0.44253,-0.45191,-0.4608,-0.46917,-0.47702,-0.48432,-0.49106,-0.49724,-0.50286,-0.5079,-0.51238,-0.5163,-0.51967,-0.52251,-0.52485,-0.52669,-0.52809,-0.52906,-0.52964,-0.52988,-0.52981,-0.52949,-0.52896,-0.52828,-0.52749,-0.52664,-0.52579,-0.52498,-0.52427,-0.52371,-0.52333,-0.52318,-0.5233,-0.52372,-0.52447,-0.52557,-0.52703,-0.52887,-0.53108,-0.53367,-0.53662,-0.5399,-0.54349,-0.54736,-0.55145,-0.55571,-0.56009,-0.5645,-0.56888,-0.57314,-0.57718,-0.58092,-0.58423,-0.58702,-0.58918,-0.59058,-0.59111,-0.59065,-0.58908,-0.58629,-0.58215,-0.57657,-0.56943,-0.56064,-0.55011,-0.53776,-0.52352,-0.50733,-0.48916,-0.46897,-0.44676,-0.42251,-0.39625,-0.36801,-0.33784,-0.30582,-0.27201,-0.23653,-0.19948,-0.16099,-0.1212,-0.080265,-0.038349,0.0043773,0.047733,0.091533,0.13559,0.1797,0.22368,0.26734,0.31048,0.35292,0.39449,0.43501,0.47432,0.51227,0.54873,0.58357,0.61668,0.64797,0.67736,0.70479,0.73021,0.7536,0.77494,0.79424,0.81151,0.8268,0.84015,0.85162,0.86128,0.86922,0.87554,0.88033,0.8837,0.88576,0.88663,0.88643,0.88528,0.88328,0.88056,0.87722,0.87338,0.86912,0.86455,0.85975,0.85479,0.84975,0.84468,0.83963,0.83465,0.82977,0.82501,0.82039,0.81592,0.81159,0.80741,0.80335,0.79942,0.79558,0.79181,0.78809,0.78439,0.78069,0.77695,0.77314,0.76925,0.76525,0.7611,0.75679,0.75231,0.74762,0.74272,0.73758,0.7322,0.72656,0.72066,0.71446,0.70797,0.70117,0.69403,0.68655,0.6787,0.67044,0.66176,0.65261,0.64296,0.63277,0.62198,0.61054,0.59839,0.58547,0.57172,0.55706,0.54142,0.52473,0.50691,0.4879,0.46761,0.44599,0.42296,0.39846,0.37244,0.34486,0.31568,0.28487,0.25243,0.21834,0.18262,0.14531,0.10644,0.066076,0.024291,-0.018821,-0.063151,-0.10857,-0.15494,-0.20211,-0.24989,-0.29811,-0.34657,-0.39506,-0.44336,-0.49126,-0.53852,-0.58492,-0.63023,-0.67421,-0.71665,-0.75732,-0.79603,-0.83257,-0.86676,-0.89843,-0.92743,-0.95365,-0.97695,-0.99727,-1.0145,-1.0287,-1.0397,-1.0477,-1.0526,-1.0545,-1.0534,-1.0496,-1.0431,-1.034,-1.0226,-1.009,-0.99352,-0.97625,-0.95748,-0.93743,-0.91637,-0.89453,-0.87218,-0.84956,-0.82691,-0.80448,-0.78249,-0.76116,-0.7407,-0.72129,-0.7031,-0.68628,-0.67096,-0.65723,-0.64518,-0.63487,-0.62632,-0.61954,-0.61451,-0.61119,-0.60951,-0.60938,-0.6107,-0.61333,-0.61712,-0.62192,-0.62755,-0.63382,-0.64054,-0.64751,-0.65452,-0.66137,-0.66786,-0.67378,-0.67895,-0.68319,-0.68632,-0.68818,-0.68862,-0.68753,-0.68479,-0.68031,-0.674,-0.66583,-0.65574,-0.64373,-0.6298,-0.61397,-0.59629,-0.57679,-0.55557,-0.5327,-0.50828,-0.48242,-0.45525,-0.42689,-0.39747,-0.36713,-0.33602,-0.30428,-0.27204,-0.23946,-0.20666,-0.17378,-0.14096,-0.1083,-0.075932,-0.043953,-0.012462,0.018451,0.048706,0.078233,0.10697,0.13486,0.16187,0.18796,0.21309,0.23726,0.26045,0.28265,0.30386,0.32409,0.34336,0.36166,0.37904,0.3955,0.41108,0.4258,0.4397,0.45281,0.46517,0.47681,0.48777,0.49809,0.50781,0.51695,0.52557,0.53369,0.54134,0.54856,0.55537,0.5618,0.56787,0.57358,0.57896,0.58401,0.58873,0.59312,0.59716,0.60085,0.60416,0.60706,0.60953,0.61153,0.61302,0.61396,0.61431,0.61402,0.61303,0.61131,0.60881,0.60547,0.60127,0.59617,0.59012,0.58311,0.57512,0.56615,0.55618,0.54524,0.53334,0.52052,0.50682,0.4923,0.47703,0.46109,0.44457,0.42759,0.41026,0.3927,0.37505,0.35745,0.34006,0.32304,0.30654,0.29072,0.27575,0.26179,0.249,0.23753,0.22753,0.21914,0.21249,0.20769,0.20484,0.20403,0.20533,0.2088,0.21447,0.22236,0.23248,0.24479,0.25926,0.27583,0.29443,0.31497,0.33733,0.3614,0.38703,0.41407,0.44238,0.47177,0.50207,0.5331,0.56468,0.59663,0.62874,0.66086,0.69278,0.72434,0.75536,0.78569,0.81516,0.84364,0.87098,0.89706,0.92176,0.94498,0.96661,0.98656,1.0048,1.0211,1.0356,1.0481,1.0587,1.0671,1.0735,1.0778,1.0799,1.0798,1.0774,1.0728,1.0659,1.0567,1.0451,1.0312,1.0147,0.99589,0.97454,0.95068,0.92427,0.89528,0.86371,0.82952,0.7927,0.75326,0.71118,0.66649,0.6192,0.56935,0.51698,0.46215,0.40493,0.34541,0.2837,0.2199,0.15416,0.08663,0.017476,-0.053118,-0.12495,-0.19781,-0.27146,-0.34566,-0.42017,-0.49471,-0.56901,-0.6428,-0.71578,-0.78767,-0.85817,-0.92701,-0.99389,-1.0585,-1.1206,-1.18,-1.2363,-1.2893,-1.3389,-1.3847,-1.4267,-1.4646,-1.4983,-1.5277,-1.5527,-1.5731,-1.5891,-1.6005,-1.6074,-1.6098,-1.6078,-1.6014,-1.5909,-1.5762,-1.5576,-1.5353,-1.5095,-1.4803,-1.4481,-1.4131,-1.3756,-1.3357,-1.2939,-1.2504,-1.2054,-1.1593,-1.1124,-1.0649,-1.0171,-0.96922,-0.92156,-0.87433,-0.82776,-0.78203,-0.73733,-0.69383,-0.65166,-0.61094,-0.57178,-0.53425,-0.49841,-0.46429,-0.43191,-0.40127,-0.37234,-0.3451,-0.31948,-0.29543,-0.27287,-0.25171,-0.23186,-0.21323,-0.19572,-0.17922,-0.16364,-0.14889,-0.13486,-0.12147,-0.10866,-0.096344,-0.084471,-0.072993,-0.061874,-0.051088,-0.040623,-0.030476,-0.020655,-0.011178,-0.0020698,0.006635,0.014897,0.022672,0.029913,0.036572,0.0426,0.047952,0.052585,0.056464,0.059558,0.061847,0.063318,0.063971,0.063816,0.062875,0.061184,0.05879,0.055753,0.052145,0.048051,0.043565,0.03879,0.03384,0.028833,0.023895,0.019153,0.014738,0.010781,0.0074091,0.004747,0.0029137,0.0020203,0.002169,0.0034513,0.0059463,0.00972,0.014824,0.021294,0.02915,0.038397,0.049022,0.060996,0.074275,0.0888,0.10449,0.12127,0.13903,0.15766,0.17704,0.19704,0.21753,0.23836,0.2594,0.2805,0.30152,0.32233,0.34279,0.36277,0.38216,0.40084,0.41872,0.43571,0.45173,0.46673,0.48065,0.49347,0.50515,0.5157,0.52513,0.53344,0.54068,0.54688,0.5521,0.5564,0.55985,0.56252,0.56448,0.56582,0.56662,0.56695,0.5669,0.56653,0.56591,0.5651,0.56415,0.56311,0.562,0.56085,0.55967,0.55846,0.55721,0.5559,0.55449,0.55295,0.55122,0.54925,0.54697,0.54431,0.54121,0.53759,0.53337,0.52849,0.52287,0.51645,0.50917,0.50098,0.49185,0.48174,0.47064,0.45854,0.44546,0.43141,0.41645,0.40062,0.38399,0.36664,0.34868,0.33021,0.31134,0.29222,0.27296,0.25373,0.23467,0.21592,0.19764,0.17997,0.16306,0.14704,0.13204,0.11818,0.10555,0.094258,0.084364,0.075928,0.068986,0.063558,0.059643,0.057219,0.056247,0.056668,0.058403,0.061357,0.065417,0.070458,0.076337,0.082905,0.089998,0.097449,0.10508,0.11272,0.12019,0.12731,0.13391,0.13983,0.14491,0.14901,0.15198,0.15373,0.15413,0.15311,0.1506,0.14655,0.14094,0.13375,0.12501,0.11475,0.10301,0.089876,0.075433,0.059789,0.043067,0.025405,0.0069534,-0.012127,-0.031666,-0.051486,-0.071406,-0.091239,-0.1108,-0.1299,-0.14837,-0.16601,-0.18267,-0.19818,-0.21239,-0.22517,-0.23638,-0.24591,-0.25368,-0.2596,-0.26362,-0.26569,-0.2658,-0.26393,-0.26012,-0.25439,-0.2468,-0.23743,-0.22636,-0.21371,-0.1996,-0.18416,-0.16756,-0.14995,-0.13151,-0.11241,-0.092845,-0.073006,-0.053082,-0.033265,-0.013745,0.0052937,0.023673,0.041223,0.057786,0.073213,0.087373,0.10015,0.11143,0.12114,0.12921,0.1356,0.14027,0.14321,0.14443,0.14396,0.14185,0.13814,0.13293,0.1263,0.11834,0.10919,0.098944,0.087749,0.075733,0.063035,0.049791,0.036138,0.022211,0.0081368,-0.0059614,-0.01997,-0.033785,-0.047312,-0.060471,-0.073191,-0.085416,-0.097104,-0.10822,-0.11876,-0.1287,-0.13806,-0.14686,-0.15512,-0.16287,-0.17017,-0.17706,-0.18359,-0.18982,-0.19581,-0.2016,-0.20726,-0.21284,-0.21839,-0.22394,-0.22953,-0.23518,-0.24093,-0.24676,-0.2527,-0.25873,-0.26483,-0.27098,-0.27714,-0.28327,-0.28932,-0.29524,-0.30097,-0.30642,-0.31155,-0.31626,-0.32049,-0.32417,-0.32721,-0.32955,-0.33112,-0.33187,-0.33172,-0.33064,-0.32857,-0.32551,-0.32141,-0.31627,-0.31009,-0.30289,-0.29469,-0.28553,-0.27545,-0.26452,-0.2528,-0.2404,-0.22739,-0.21389,-0.19999,-0.18584,-0.17154,-0.15724,-0.14306,-0.12915,-0.11564,-0.10266,-0.090367,-0.078877,-0.068318,-0.05881,-0.050464,-0.043381,-0.037649,-0.033347,-0.030537,-0.029267,-0.029572,-0.031467,-0.034952,-0.040008,-0.0466,-0.054673,-0.064156,-0.07496,-0.086978,-0.10009,-0.11416,-0.12903,-0.14454,-0.16052,-0.17678,-0.19313,-0.20936,-0.22529,-0.2407,-0.25538,-0.26915,-0.2818,-0.29314,-0.30299,-0.31119,-0.31757,-0.322,-0.32435,-0.32452,-0.32241,-0.31796,-0.31113,-0.30188,-0.29023,-0.27618,-0.2598,-0.24114,-0.22029,-0.19736,-0.17249,-0.14582,-0.11753,-0.087787,-0.056805,-0.024788,0.0080401,0.04145,0.075207,0.10907,0.1428,0.17616,0.2089,0.24082,0.27167,0.30126,0.32938,0.35585,0.38052,0.40322,0.42384,0.44227,0.45842,0.47223,0.48365,0.49267,0.49929,0.50354,0.50545,0.50511,0.50258,0.49797,0.49139,0.48298,0.47287,0.46122,0.44819,0.43393,0.41863,0.40245,0.38556,0.36813,0.35032,0.33231,0.31423,0.29623,0.27845,0.26102,0.24404,0.22762,0.21184,0.19678,0.1825,0.16905,0.15647,0.14477,0.13397,0.12406,0.11504,0.10687,0.099539,0.092992,0.087189,0.082079,0.077606,0.073712,0.070336,0.06742,0.064904,0.062731,0.060846,0.059199,0.057746,0.056447,0.055268,0.054184,0.053176,0.052231,0.051347,0.050525,0.049776,0.049119,0.048575,0.048177,0.047957,0.047957,0.048218,0.048788,0.049714,0.051046,0.052831,0.055119,0.057955,0.061383,0.065442,0.070166,0.075585,0.08172,0.088588,0.096196,0.10454,0.11362,0.12342,0.13389,0.14502,0.15675,0.16903,0.1818,0.19498,0.20849,0.22225,0.23617,0.25015,0.26408,0.27786,0.29139,0.30456,0.31725,0.32937,0.34082,0.35148,0.36128,0.37011,0.37792,0.38461,0.39014,0.39444,0.39748,0.39922,0.39965,0.39875,0.39651,0.39296,0.38812,0.382,0.37466,0.36614,0.3565,0.3458,0.3341,0.32149,0.30803,0.29382,0.27892,0.26343,0.24742,0.23098,0.21419,0.19711,0.17982,0.16239,0.14487,0.12731,0.10977,0.092273,0.074856,0.05754,0.040339,0.02326,0.0063019,-0.010543,-0.027288,-0.043952,-0.060561,-0.077142,-0.093725,-0.11034,-0.12703,-0.14382,-0.16074,-0.17781,-0.19507,-0.21253,-0.23019,-0.24808,-0.26618,-0.28448,-0.30297,-0.3216,-0.34036,-0.35917,-0.37799,-0.39675,-0.41538,-0.43377,-0.45185,-0.46951,-0.48665,-0.50314,-0.51889,-0.53376,-0.54764,-0.56041,-0.57194,-0.58213,-0.59085,-0.59799,-0.60346,-0.60716,-0.60901,-0.60893,-0.60685,-0.60272,-0.59651,-0.58819,-0.57776,-0.5652,-0.55056,-0.53385,-0.51514,-0.4945,-0.47199,-0.44773,-0.42183,-0.39441,-0.3656,-0.33557,-0.30446,-0.27245,-0.23971,-0.20643,-0.1728,-0.13899,-0.1052,-0.071617,-0.038428,-0.0058143,0.02605,0.056998,0.086872,0.11552,0.14281,0.16862,0.19283,0.21536,0.23611,0.25503,0.27206,0.28717,0.30033,0.31154,0.32082,0.32818,0.33367,0.33732,0.33921,0.33941,0.33799,0.33505,0.33069,0.32501,0.31812,0.31013,0.30116,0.29133,0.28076,0.26956,0.25786,0.24576,0.23339,0.22083,0.20821,0.19562,0.18313,0.17085,0.15884,0.14718,0.13592,0.12512,0.11482,0.10506,0.09586,0.087249,0.079236,0.071826,0.065019,0.058805,0.05317,0.048097,0.043561,0.039536,0.035991
2,2,-0.13129,-0.15118,-0.17119,-0.19111,-0.21071,-0.22977,-0.24808,-0.26542,-0.28159,-0.29639,-0.30964,-0.32117,-0.33084,-0.33849,-0.34403,-0.34735,-0.34838,-0.34706,-0.34338,-0.33732,-0.3289,-0.31815,-0.30515,-0.28996,-0.2727,-0.25349,-0.23245,-0.20975,-0.18556,-0.16005,-0.13343,-0.10588,-0.077611,-0.048844,-0.019788,0.0093433,0.038337,0.066985,0.095086,0.12244,0.14888,0.17421,0.19828,0.22095,0.24208,0.26157,0.2793,0.29522,0.30926,0.32137,0.33154,0.33977,0.34606,0.35046,0.353,0.35377,0.35283,0.35028,0.34622,0.34077,0.33405,0.32618,0.31731,0.30756,0.29709,0.28602,0.27449,0.26264,0.2506,0.23848,0.22642,0.2145,0.20284,0.19152,0.18062,0.17021,0.16035,0.15108,0.14244,0.13445,0.12712,0.12047,0.11449,0.10916,0.10446,0.10036,0.096829,0.093822,0.091296,0.0892,0.087484,0.086093,0.084973,0.084069,0.083328,0.082696,0.082124,0.081565,0.080973,0.080308,0.079534,0.078619,0.077535,0.076259,0.074774,0.073067,0.071128,0.068954,0.066545,0.063906,0.061044,0.057972,0.054704,0.051258,0.047653,0.04391,0.040052,0.036103,0.032088,0.028031,0.023957,0.019889,0.01585,0.011862,0.0079455,0.0041194,0.00040062,-0.0031959,-0.0066574,-0.0099729,-0.013134,-0.016134,-0.018969,-0.021637,-0.024137,-0.026472,-0.028645,-0.030661,-0.032527,-0.03425,-0.035839,-0.037305,-0.038657,-0.039907,-0.041066,-0.042145,-0.043155,-0.044108,-0.045015,-0.045884,-0.046726,-0.04755,-0.048364,-0.049174,-0.049986,-0.050806,-0.051638,-0.052484,-0.053347,-0.054227,-0.055126,-0.056041,-0.056972,-0.057916,-0.05887,-0.05983,-0.060793,-0.061754,-0.062707,-0.063649,-0.064573,-0.065475,-0.06635,-0.067192,-0.067997,-0.06876,-0.069477,-0.070143,-0.070756,-0.071313,-0.07181,-0.072247,-0.07262,-0.07293,-0.073175,-0.073355,-0.073472,-0.073525,-0.073516,-0.073446,-0.073318,-0.073133,-0.072895,-0.072605,-0.072267,-0.071883,-0.071457,-0.070991,-0.07049,-0.069955,-0.06939,-0.068797,-0.06818,-0.067541,-0.066882,-0.066205,-0.065513,-0.064807,-0.064089,-0.063359,-0.06262,-0.061871,-0.061114,-0.060348,-0.059575,-0.058794,-0.058004,-0.057207,-0.056401,-0.055586,-0.054762,-0.053927,-0.053082,-0.052225,-0.051357,-0.050476,-0.049581,-0.048673,-0.047752,-0.046815,-0.045864,-0.044898,-0.043917,-0.042921,-0.04191,-0.040885,-0.039845,-0.038791,-0.037724,-0.036645,-0.035553,-0.034451,-0.033338,-0.032216,-0.031086,-0.029948,-0.028804,-0.027656,-0.026503,-0.025348,-0.024191,-0.023033,-0.021876,-0.02072,-0.019567,-0.018417,-0.017271,-0.016131,-0.014997,-0.01387,-0.01275,-0.011639,-0.010536,-0.0094423,-0.0083584,-0.0072846,-0.0062212,-0.0051686,-0.0041269,-0.0030965,-0.0020776,-0.0010701,-7.438e-05,0.00090958,0.0018817,0.0028418,0.0037899,0.004726,0.0056499,0.0065617,0.0074612,0.0083484,0.0092232,0.010085,0.010935,0.011772,0.012596,0.013407,0.014205,0.014989,0.01576,0.016517,0.01726,0.017989,0.018703,0.019403,0.020087,0.020756,0.02141,0.022048,0.022669,0.023275,0.023864,0.024436,0.024991,0.025529,0.02605,0.026553,0.027038,0.027506,0.027955,0.028387,0.028801,0.029196,0.029573,0.029932,0.030273,0.030595,0.030899,0.031186,0.031454,0.031704,0.031936,0.032151,0.032348,0.032528,0.03269,0.032835,0.032963,0.033074,0.033168,0.033246,0.033308,0.033353,0.033382,0.033396,0.033393,0.033376,0.033343,0.033294,0.033231,0.033153,0.033061,0.032954,0.032833,0.032697,0.032548,0.032385,0.032209,0.032019,0.031816,0.0316,0.031371,0.03113,0.030876,0.03061,0.030332,0.030042,0.029741,0.029428,0.029104,0.028769,0.028423,0.028067,0.027701,0.027324,0.026938,0.026543,0.026138,0.025724,0.025302,0.024871,0.024433,0.023986,0.023532,0.02307,0.022602,0.022127,0.021645,0.021158,0.020664,0.020165,0.019661,0.019152,0.018639,0.018121,0.017599,0.017073,0.016544,0.016012,0.015477,0.014939,0.014399,0.013857,0.013313,0.012767,0.012221,0.011673,0.011125,0.010576,0.010027,0.0094781,0.0089296,0.0083816,0.0078345,0.0072885,0.0067438,0.0062007,0.0056593,0.00512,0.004583,0.0040484,0.0035166,0.0029877,0.002462,0.0019397,0.001421,0.00090604,0.00039515,-0.00011151,-0.00061374,-0.0011113,-0.0016041,-0.0020918,-0.0025744,-0.0030515,-0.003523,-0.0039888,-0.0044487,-0.0049024,-0.0053499,-0.0057909,-0.0062254,-0.0066531,-0.007074,-0.0074878,-0.0078944,-0.0082938,-0.0086857,-0.0090701,-0.0094468,-0.0098158,-0.010177,-0.01053,-0.010875,-0.011212,-0.01154,-0.011861,-0.012172,-0.012476,-0.01277,-0.013057,-0.013334,-0.013603,-0.013863,-0.014114,-0.014357,-0.01459,-0.014815,-0.015031,-0.015237,-0.015435,-0.015624,-0.015804,-0.015975,-0.016137,-0.016291,-0.016435,-0.01657,-0.016697,-0.016814,-0.016923,-0.017023,-0.017114,-0.017196,-0.01727,-0.017335,-0.017392,-0.01744,-0.01748,-0.017511,-0.017534,-0.017548,-0.017555,-0.017553,-0.017543,-0.017526,-0.0175,-0.017467,-0.017426,-0.017377,-0.017321,-0.017258,-0.017187,-0.017109,-0.017024,-0.016932,-0.016833,-0.016728,-0.016616,-0.016497,-0.016372,-0.016241,-0.016103,-0.01596,-0.015811,-0.015656,-0.015496,-0.01533,-0.015159,-0.014982,-0.014801,-0.014615,-0.014424,-0.014228,-0.014028,-0.013824,-0.013615,-0.013403,-0.013186,-0.012966,-0.012742,-0.012515,-0.012285,-0.012051,-0.011814,-0.011575,-0.011332,-0.011088,-0.01084,-0.010591,-0.010339,-0.010085,-0.0098296,-0.0095722,-0.0093133,-0.0090529,-0.0087912,-0.0085283,-0.0082643,-0.0079994,-0.0077338,-0.0074675,-0.0072007,-0.0069336,-0.0066662,-0.0063986,-0.0061311,-0.0058637,-0.0055966,-0.0053298,-0.0050636,-0.004798,-0.0045331,-0.0042691,-0.0040061,-0.0037441,-0.0034834,-0.003224,-0.0029661,-0.0027097,-0.002455,-0.002202,-0.0019509,-0.0017017,-0.0014546,-0.0012097,-0.00096703,-0.00072672,-0.00048886,-0.00025353,-2.0837e-05,0.00020915,0.00043634,0.00066065,0.00088201,0.0011003,0.0013156,0.0015276,0.0017364,0.0019418,0.0021439,0.0023426,0.0025377,0.0027293,0.0029172,0.0031015,0.003282,0.0034588,0.0036318,0.0038008,0.003966,0.0041273,0.0042845,0.0044377,0.0045869,0.004732,0.004873,0.0050098,0.0051425,0.005271,0.0053953,0.0055154,0.0056313,0.0057429,0.0058503,0.0059534,0.0060522,0.0061468,0.0062371,0.0063231,0.0064048,0.0064823,0.0065555,0.0066245,0.0066892,0.0067497,0.006806,0.006858,0.0069059,0.0069496,0.0069892,0.0070247,0.007056,0.0070833,0.0071066,0.0071258,0.0071411,0.0071525,0.0071599,0.0071635,0.0071632,0.0071592,0.0071514,0.0071399,0.0071248,0.007106,0.0070837,0.0070579,0.0070287,0.006996,0.0069599,0.0069206,0.006878,0.0068322,0.0067833,0.0067313,0.0066763,0.0066184,0.0065575,0.0064939,0.0064274,0.0063583,0.0062865,0.0062121,0.0061352,0.0060559,0.0059741,0.0058901,0.0058038,0.0057153,0.0056247,0.005532,0.0054374,0.0053408,0.0052424,0.0051422,0.0050403,0.0049368,0.0048316,0.004725,0.0046169,0.0045074,0.0043966,0.0042845,0.0041713,0.0040569,0.0039415,0.0038251,0.0037078,0.0035896,0.0034707,0.003351,0.0032306,0.0031097,0.0029882,0.0028662,0.0027438,0.002621,0.002498,0.0023747,0.0022512,0.0021276,0.0020039,0.0018803,0.0017567,0.0016331,0.0015098,0.0013867,0.0012638,0.0011412,0.0010191,0.0008973,0.00077602,0.00065526,0.00053508,0.00041551,0.00029662,0.00017844,6.1014e-05,-5.5603e-05,-0.00017137,-0.00028625,-0.00040019,-0.00051316,-0.00062511,-0.00073601,-0.00084581,-0.00095448,-0.001062,-0.0011683,-0.0012733,-0.0013771,-0.0014796,-0.0015807,-0.0016805,-0.0017788,-0.0018757,-0.0019712,-0.0020652,-0.0021576,-0.0022485,-0.0023379,-0.0024256,-0.0025118,-0.0025963,-0.0026791,-0.0027603,-0.0028397,-0.0029175,-0.0029935,-0.0030678,-0.0031402,-0.0032109,-0.0032799,-0.003347,-0.0034122,-0.0034757,-0.0035373,-0.003597,-0.0036549,-0.003711,-0.0037651,-0.0038174,-0.0038677,-0.0039162,-0.0039628,-0.0040075,-0.0040503,-0.0040912,-0.0041302,-0.0041673,-0.0042025,-0.0042359,-0.0042673,-0.0042968,-0.0043245,-0.0043503,-0.0043742,-0.0043962,-0.0044164,-0.0044348,-0.0044513,-0.004466,-0.0044789,-0.00449,-0.0044992,-0.0045068,-0.0045125,-0.0045165,-0.0045187,-0.0045193,-0.0045181,-0.0045152,-0.0045107,-0.0045045,-0.0044966,-0.0044872,-0.0044761,-0.0044635,-0.0044493,-0.0044335,-0.0044163,-0.0043975,-0.0043773,-0.0043556,-0.0043325,-0.0043079,-0.004282,-0.0042547,-0.0042261,-0.0041962,-0.004165,-0.0041325,-0.0040988,-0.0040639,-0.0040278,-0.0039905,-0.0039521,-0.0039126,-0.003872,-0.0038304,-0.0037878,-0.0037442,-0.0036996,-0.0036541,-0.0036077,-0.0035604,-0.0035123,-0.0034633,-0.0034136,-0.0033631,-0.0033119,-0.00326,-0.0032075,-0.0031543,-0.0031005,-0.0030461,-0.0029912,-0.0029358,-0.0028799,-0.0028236,-0.0027668,-0.0027096,-0.0026521,-0.0025943,-0.0025361,-0.0024777,-0.002419,-0.0023601,-0.0023011,-0.0022418,-0.0021825,-0.002123,-0.0020635,-0.0020039,-0.0019444,-0.0018848,-0.0018253,-0.0017658,-0.0017065,-0.0016472,-0.0015881,-0.0015292,-0.0014704,-0.0014119,-0.0013536,-0.0012956,-0.0012379,-0.0011805,-0.0011234,-0.0010667,-0.0010104,-0.00095447,-0.00089896,-0.00084391,-0.00078932,-0.00073521,-0.0006816,-0.00062852,-0.00057598,-0.000524,-0.0004726,-0.00042179,-0.0003716,-0.00032203,-0.00027311,-0.00022484,-0.00017725,-0.00013036,-8.416e-05,-3.8682e-05,6.0647e-06,5.0067e-05,9.3312e-05,0.00013579,0.00017748,0.00021839,0.00025849,0.00029777,0.00033623,0.00037386,0.00041065,0.00044658,0.00048166,0.00051586,0.00054919,0.00058164,0.0006132,0.00064386,0.00067362,0.00070247,0.00073041,0.00075743,0.00078353,0.00080871,0.00083296,0.00085627,0.00087866,0.0009001,0.00092061,0.00094018,0.00095882,0.00097651,0.00099326,0.0010091,0.001024,0.0010379,0.0010509,0.001063,0.0010741,0.0010843,0.0010936,0.001102,0.0011095,0.001116,0.0011217,0.0011264,0.0011303,0.0011333,0.0011353,0.0011366,0.0011369,0.0011364,0.0011351,0.0011329,0.0011298,0.001126,0.0011213,0.0011159,0.0011096,0.0011026,0.0010947,0.0010862,0.0010768,0.0010668,0.001056,0.0010445,0.0010323,0.0010194,0.0010058,0.00099152,0.00097662,0.00096107,0.0009449,0.00092812,0.00091073,0.00089276,0.00087422,0.00085512,0.00083547,0.00081529,0.0007946,0.0007734,0.00075172,0.00072956,0.00070695,0.00068389,0.00066041,0.00063651,0.00061221,0.00058753,0.00056248,0.00053707,0.00051133,0.00048526,0.00045888,0.00043221,0.00040525,0.00037804,0.00035057,0.00032286,0.00029494,0.00026681,0.00023848,0.00020998,0.00018132,0.00015251,0.00012356,9.4492e-05,6.5318e-05,3.6052e-05,6.7059e-06,-2.2705e-05,-5.2168e-05,-8.167e-05,-0.0001112,-0.00014074,-0.00017028,-0.0001998,-0.0002293,-0.00025876,-0.00028817,-0.00031752,-0.0003468,-0.00037599,-0.00040508,-0.00043406,-0.00046291,-0.00049164,-0.00052023,-0.00054866,-0.00057693,-0.00060502,-0.00063293,-0.00066064,-0.00068815,-0.00071544,-0.00074251,-0.00076934,-0.00079593,-0.00082227,-0.00084835,-0.00087416,-0.00089969,-0.00092494,-0.00094989,-0.00097453,-0.00099887,-0.0010229,-0.0010466,-0.0010699,-0.001093,-0.0011156,-0.0011379,-0.0011599,-0.0011815,-0.0012027,-0.0012235,-0.001244,-0.0012641,-0.0012837,-0.001303,-0.0013218,-0.0013403,-0.0013583,-0.0013759,-0.0013931,-0.0014099,-0.0014262,-0.001442,-0.0014575,-0.0014725,-0.001487,-0.0015011,-0.0015148,-0.001528,-0.0015407,-0.001553,-0.0015648,-0.0015761,-0.001587,-0.0015975,-0.0016074,-0.0016169,-0.0016259,-0.0016345,-0.0016425,-0.0016501,-0.0016573,-0.001664,-0.0016702,-0.0016759,-0.0016812,-0.001686,-0.0016904,-0.0016943,-0.0016977,-0.0017007,-0.0017032,-0.0017053,-0.0017069,-0.0017081,-0.0017088,-0.0017091,-0.001709,-0.0017084,-0.0017074,-0.001706,-0.0017042,-0.0017019,-0.0016993,-0.0016962,-0.0016927,-0.0016889,-0.0016846,-0.00168,-0.0016749,-0.0016696,-0.0016638,-0.0016577,-0.0016512,-0.0016443,-0.0016371,-0.0016296,-0.0016218,-0.0016136,-0.0016051,-0.0015963,-0.0015871,-0.0015777,-0.001568,-0.001558,-0.0015477,-0.0015371,-0.0015263,-0.0015152,-0.0015039,-0.0014923,-0.0014804,-0.0014684,-0.0014561,-0.0014436,-0.0014309,-0.001418,-0.0014049,-0.0013916,-0.0013781,-0.0013645,-0.0013507,-0.0013367,-0.0013226,-0.0013083,-0.0012939,-0.0012794,-0.0012648,-0.00125,-0.0012352,-0.0012202,-0.0012052,-0.0011901,-0.0011749,-0.0011596,-0.0011443,-0.0011289,-0.0011135,-0.0010981,-0.0010826,-0.0010671,-0.0010516,-0.0010361,-0.0010206,-0.0010051,-0.00098964,-0.00097418,-0.00095875,-0.00094335,-0.00092801,-0.00091271,-0.00089747,-0.00088229,-0.00086719,-0.00085216,-0.00083721,-0.00082236,-0.0008076,-0.00079294,-0.0007784,-0.00076396,-0.00074965,-0.00073546,-0.0007214,-0.00070748,-0.0006937,-0.00068007,-0.00066659,-0.00065327,-0.00064011,-0.00062712,-0.0006143,-0.00060166,-0.0005892,-0.00057692,-0.00056483,-0.00055294,-0.00054125,-0.00052975,-0.00051846,-0.00050738,-0.00049651,-0.00048586,-0.00047542,-0.00046521,-0.00045522,-0.00044546,-0.00043593,-0.00042663,-0.00041757,-0.00040875,-0.00040016,-0.00039182,-0.00038372,-0.00037586,-0.00036825,-0.00036089,-0.00035378,-0.00034692,-0.00034031,-0.00033395,-0.00032785,-0.000322,-0.00031641,-0.00031107,-0.00030598,-0.00030116,-0.00029658,-0.00029227,-0.0002882,-0.00028439,-0.00028084,-0.00027754,-0.00027449,-0.0002717,-0.00026915,-0.00026685,-0.00026481,-0.00026301,-0.00026145,-0.00026014,-0.00025907,-0.00025824,-0.00025765,-0.0002573,-0.00025718,-0.0002573,-0.00025764,-0.00025821,-0.00025901,-0.00026003,-0.00026127,-0.00026273,-0.0002644,-0.00026629,-0.00026838,-0.00027068,-0.00027318,-0.00027587,-0.00027877,-0.00028186,-0.00028514,-0.0002886,-0.00029224,-0.00029607,-0.00030007,-0.00030424,-0.00030858,-0.00031308,-0.00031774,-0.00032256,-0.00032753,-0.00033265,-0.00033791,-0.00034331,-0.00034885,-0.00035452,-0.00036032,-0.00036625,-0.00037229,-0.00037845,-0.00038472,-0.0003911,-0.00039758,-0.00040416,-0.00041083,-0.00041759,-0.00042444,-0.00043138,-0.00043839,-0.00044547,-0.00045262,-0.00045984,-0.00046712,-0.00047445,-0.00048184,-0.00048928,-0.00049676,-0.00050428,-0.00051184,-0.00051943,-0.00052705,-0.00053469,-0.00054236,-0.00055004,-0.00055773,-0.00056543,-0.00057314,-0.00058085,-0.00058856,-0.00059626,-0.00060395,-0.00061163,-0.00061929,-0.00062693,-0.00063454,-0.00064213,-0.00064969,-0.00065722,-0.00066471,-0.00067216,-0.00067956,-0.00068692,-0.00069423,-0.00070149,-0.00070869,-0.00071584,-0.00072292,-0.00072994,-0.00073689,-0.00074378,-0.00075059,-0.00075733,-0.00076399,-0.00077057,-0.00077707,-0.00078349,-0.00078982,-0.00079607,-0.00080222,-0.00080828,-0.00081425,-0.00082012,-0.00082589,-0.00083157,-0.00083714,-0.00084261,-0.00084797,-0.00085323,-0.00085838,-0.00086342,-0.00086836,-0.00087318,-0.00087788,-0.00088248,-0.00088696,-0.00089132,-0.00089556,-0.00089969,-0.0009037,-0.00090759,-0.00091136,-0.00091501,-0.00091854,-0.00092195,-0.00092524,-0.0009284,-0.00093144,-0.00093436,-0.00093716,-0.00093983,-0.00094238,-0.0009448,-0.0009471,-0.00094928,-0.00095134,-0.00095327,-0.00095509,-0.00095678,-0.00095835,-0.00095979,-0.00096112,-0.00096233,-0.00096342,-0.00096438,-0.00096524,-0.00096597,-0.00096659,-0.00096709,-0.00096748,-0.00096775,-0.00096791,-0.00096796,-0.0009679,-0.00096773,-0.00096745,-0.00096706,-0.00096657,-0.00096597,-0.00096527,-0.00096447,-0.00096356,-0.00096256,-0.00096146,-0.00096027,-0.00095897,-0.00095759,-0.00095612,-0.00095455,-0.0009529,-0.00095116,-0.00094933,-0.00094743,-0.00094544,-0.00094337,-0.00094122,-0.000939,-0.00093671,-0.00093434,-0.0009319,-0.0009294,-0.00092683,-0.00092419,-0.00092149,-0.00091874,-0.00091592,-0.00091305,-0.00091012,-0.00090715,-0.00090412,-0.00090105,-0.00089793,-0.00089476,-0.00089156,-0.00088832,-0.00088504,-0.00088172,-0.00087837,-0.000875,-0.00087159,-0.00086816,-0.0008647,-0.00086122,-0.00085772,-0.00085421,-0.00085067,-0.00084713,-0.00084357,-0.00084,-0.00083643,-0.00083285,-0.00082927,-0.00082568,-0.0008221,-0.00081852,-0.00081494,-0.00081137,-0.00080781,-0.00080426,-0.00080072,-0.00079719,-0.00079368,-0.00079019,-0.00078671,-0.00078326,-0.00077983,-0.00077642,-0.00077304,-0.00076969,-0.00076636,-0.00076307,-0.00075981,-0.00075658,-0.00075339,-0.00075023,-0.00074711,-0.00074403,-0.00074099,-0.00073799,-0.00073503,-0.00073212,-0.00072925,-0.00072643,-0.00072365,-0.00072093,-0.00071825,-0.00071563,-0.00071305,-0.00071053,-0.00070806,-0.00070564,-0.00070328,-0.00070098,-0.00069873,-0.00069653,-0.0006944,-0.00069232,-0.0006903,-0.00068834,-0.00068644,-0.0006846,-0.00068283,-0.00068111,-0.00067945,-0.00067786,-0.00067633,-0.00067486,-0.00067345,-0.0006721,-0.00067082,-0.0006696,-0.00066845,-0.00066735,-0.00066632,-0.00066536,-0.00066445,-0.00066361,-0.00066283,-0.00066212,-0.00066147,-0.00066087,-0.00066034,-0.00065988,-0.00065947,-0.00065912,-0.00065883,-0.00065861,-0.00065844,-0.00065833,-0.00065828,-0.00065829,-0.00065835,-0.00065847,-0.00065864,-0.00065887,-0.00065916,-0.0006595,-0.00065989,-0.00066033,-0.00066082,-0.00066137,-0.00066196,-0.0006626,-0.00066329,-0.00066403,-0.00066481,-0.00066563,-0.0006665,-0.00066741,-0.00066837,-0.00066936,-0.0006704,-0.00067147,-0.00067258,-0.00067373,-0.00067491,-0.00067613,-0.00067738,-0.00067866,-0.00067997,-0.00068131,-0.00068269,-0.00068408,-0.00068551,-0.00068696,-0.00068843,-0.00068993,-0.00069144,-0.00069298,-0.00069453,-0.0006961,-0.00069769,-0.00069929,-0.0007009,-0.00070253,-0.00070416,-0.00070581,-0.00070746,-0.00070912,-0.00071078,-0.00071244,-0.0007141,-0.00071577,-0.00071743,-0.00071909,-0.00072075,-0.0007224,-0.00072404,-0.00072567,-0.0007273,-0.00072891,-0.00073051,-0.00073209,-0.00073366,-0.00073521,-0.00073675,-0.00073826,-0.00073976,-0.00074123,-0.00074268,-0.00074411,-0.00074552,-0.0007469,-0.00074825,-0.00074958,-0.00075088,-0.00075215,-0.00075339,-0.00075461,-0.00075579,-0.00075694,-0.00075806,-0.00075915,-0.0007602,-0.00076122,-0.00076221,-0.00076317,-0.00076409,-0.00076497,-0.00076582,-0.00076663,-0.0007674,-0.00076814,-0.00076883,-0.00076949,-0.00077011,-0.00077069,-0.00077123,-0.00077173,-0.00077218,-0.0007726,-0.00077296,-0.00077329,-0.00077357,-0.00077381,-0.000774,-0.00077414,-0.00077424,-0.0007743,-0.0007743,-0.00077426,-0.00077417,-0.00077404,-0.00077386,-0.00077363,-0.00077336,-0.00077305,-0.00077269,-0.00077229,-0.00077184,-0.00077136,-0.00077084,-0.00077028,-0.00076969,-0.00076906,-0.00076841,-0.00076772,-0.00076702,-0.00076628,-0.00076553,-0.00076477,-0.00076398,-0.00076319,-0.00076239,-0.00076159,-0.00076078,-0.00075998,-0.00075919,-0.0007584,-0.00075762,-0.00075686,-0.00075611,-0.00075538,-0.00075468,-0.000754,-0.00075334,-0.00075271,-0.00075212,-0.00075155,-0.00075101,-0.00075051,-0.00075004,-0.0007496,-0.00074919,-0.00074882,-0.00074848,-0.00074817,-0.00074789,-0.00074764,-0.00074741,-0.00074722,-0.00074705,-0.0007469,-0.00074677,-0.00074666
2,3,-0.23768,-0.2788,-0.32025,-0.36187,-0.40346,-0.44484,-0.48583,-0.52625,-0.56591,-0.60463,-0.64224,-0.67857,-0.71345,-0.74673,-0.77826,-0.8079,-0.83554,-0.86104,-0.8843,-0.90524,-0.92377,-0.93984,-0.95337,-0.96435,-0.97274,-0.97854,-0.98175,-0.98238,-0.98048,-0.97607,-0.96923,-0.96002,-0.94852,-0.93482,-0.91902,-0.90124,-0.88159,-0.86019,-0.83718,-0.8127,-0.78687,-0.75985,-0.73178,-0.7028,-0.67305,-0.64268,-0.61182,-0.58061,-0.54917,-0.51764,-0.48612,-0.45473,-0.42358,-0.39276,-0.36237,-0.33247,-0.30316,-0.27449,-0.24654,-0.21934,-0.19296,-0.16744,-0.1428,-0.1191,-0.096344,-0.074574,-0.053809,-0.034067,-0.015367,0.0022761,0.01885,0.034344,0.04875,0.062062,0.074279,0.085401,0.095436,0.10439,0.11229,0.11915,0.125,0.12988,0.13385,0.13695,0.13926,0.14085,0.14182,0.14226,0.1423,0.14205,0.14165,0.14123,0.14097,0.141,0.14151,0.14266,0.14461,0.14756,0.15165,0.15706,0.16395,0.17245,0.18271,0.19485,0.20896,0.22513,0.24342,0.26386,0.28646,0.31121,0.33806,0.36693,0.39773,0.43032,0.46454,0.50021,0.53711,0.57501,0.61366,0.65277,0.69206,0.73122,0.76995,0.80793,0.84484,0.88038,0.91424,0.94613,0.97577,1.0029,1.0273,1.0488,1.0671,1.0822,1.0939,1.1021,1.1068,1.108,1.1058,1.1001,1.0911,1.079,1.0638,1.0458,1.0253,1.0023,0.97728,0.95039,0.92196,0.89225,0.86156,0.83017,0.79835,0.76636,0.73446,0.70287,0.67179,0.64141,0.61188,0.58331,0.55579,0.52939,0.50413,0.48,0.45695,0.43491,0.41378,0.39343,0.37369,0.35439,0.33532,0.31626,0.29697,0.27723,0.25677,0.23534,0.2127,0.1886,0.1628,0.13509,0.10526,0.073128,0.038535,0.0013489,-0.038536,-0.08119,-0.12665,-0.17493,-0.22599,-0.27976,-0.33614,-0.39498,-0.45611,-0.51931,-0.58435,-0.65093,-0.71875,-0.78747,-0.85674,-0.92617,-0.99536,-1.0639,-1.1314,-1.1974,-1.2614,-1.3231,-1.382,-1.4377,-1.4899,-1.5381,-1.5819,-1.6212,-1.6555,-1.6846,-1.7083,-1.7263,-1.7386,-1.745,-1.7455,-1.74,-1.7286,-1.7112,-1.6881,-1.6593,-1.6251,-1.5856,-1.5411,-1.4919,-1.4383,-1.3806,-1.3192,-1.2544,-1.1867,-1.1163,-1.0438,-0.96942,-0.89362,-0.81675,-0.73917,-0.66124,-0.58327,-0.50557,-0.42842,-0.35206,-0.27673,-0.20262,-0.1299,-0.058711,0.010834,0.07865,0.14467,0.20887,0.27121,0.33171,0.39038,0.44724,0.50232,0.55569,0.60736,0.65739,0.70582,0.75268,0.79799,0.84176,0.88398,0.92465,0.96373,1.0012,1.0369,1.0708,1.1028,1.1329,1.1608,1.1864,1.2097,1.2304,1.2484,1.2635,1.2757,1.2848,1.2906,1.293,1.2921,1.2876,1.2796,1.2681,1.253,1.2344,1.2125,1.1872,1.1587,1.1273,1.093,1.0562,1.017,0.97586,0.93294,0.88861,0.84317,0.79699,0.7504,0.70374,0.65736,0.61159,0.56677,0.52318,0.48113,0.44087,0.40264,0.36665,0.33308,0.30206,0.2737,0.24808,0.22522,0.20513,0.18776,0.17305,0.16088,0.15113,0.14362,0.13818,0.13459,0.13261,0.13202,0.13256,0.13395,0.13595,0.13829,0.14071,0.14295,0.14477,0.14596,0.14629,0.14557,0.14363,0.14032,0.13551,0.1291,0.12099,0.11114,0.099512,0.086088,0.070878,0.05391,0.03523,0.014899,-0.0070063,-0.030398,-0.055179,-0.081244,-0.10848,-0.13678,-0.16602,-0.1961,-0.22689,-0.25829,-0.2902,-0.32253,-0.35517,-0.38806,-0.42111,-0.45425,-0.48743,-0.52059,-0.55369,-0.58667,-0.61949,-0.65212,-0.68452,-0.71663,-0.74843,-0.77986,-0.81087,-0.84139,-0.87136,-0.90071,-0.92934,-0.95717,-0.98409,-1.01,-1.0347,-1.0582,-1.0803,-1.1008,-1.1196,-1.1366,-1.1516,-1.1646,-1.1752,-1.1835,-1.1894,-1.1926,-1.1932,-1.1911,-1.1862,-1.1785,-1.168,-1.1546,-1.1386,-1.1198,-1.0984,-1.0744,-1.0481,-1.0194,-0.98869,-0.95599,-0.9215,-0.88542,-0.84793,-0.80922,-0.7695,-0.72894,-0.68775,-0.64609,-0.60414,-0.56205,-0.51997,-0.47803,-0.43633,-0.39497,-0.35403,-0.31356,-0.2736,-0.23418,-0.19529,-0.15693,-0.11905,-0.081626,-0.044593,-0.0078845,0.028575,0.064868,0.10108,0.13731,0.17364,0.21016,0.24696,0.28412,0.32172,0.35981,0.39844,0.43768,0.47754,0.51804,0.55919,0.60098,0.64338,0.68636,0.72988,0.77386,0.81824,0.86293,0.90784,0.95286,0.9979,1.0428,1.0875,1.1319,1.1758,1.219,1.2616,1.3032,1.3439,1.3835,1.4219,1.4588,1.4943,1.5282,1.5604,1.5908,1.6192,1.6455,1.6696,1.6914,1.7108,1.7277,1.7418,1.7532,1.7616,1.7668,1.7689,1.7675,1.7626,1.7541,1.7416,1.7252,1.7047,1.6798,1.6506,1.6169,1.5785,1.5355,1.4877,1.4351,1.3777,1.3155,1.2486,1.1771,1.1011,1.0207,0.93622,0.84783,0.75583,0.66053,0.56229,0.4615,0.35858,0.25398,0.14817,0.041649,-0.065072,-0.17147,-0.27702,-0.38119,-0.48345,-0.5833,-0.68022,-0.77375,-0.86343,-0.94885,-1.0296,-1.1054,-1.1758,-1.2407,-1.2998,-1.353,-1.4002,-1.4412,-1.4761,-1.505,-1.5279,-1.5449,-1.5563,-1.5623,-1.5631,-1.559,-1.5504,-1.5376,-1.5209,-1.5009,-1.4778,-1.4521,-1.4241,-1.3944,-1.3633,-1.3312,-1.2984,-1.2654,-1.2324,-1.1997,-1.1677,-1.1366,-1.1066,-1.0779,-1.0505,-1.0247,-1.0005,-0.97795,-0.95702,-0.9377,-0.91992,-0.90361,-0.88864,-0.87489,-0.86219,-0.85037,-0.83925,-0.82863,-0.81831,-0.80809,-0.79776,-0.78713,-0.77602,-0.76423,-0.75162,-0.73804,-0.72335,-0.70745,-0.69026,-0.67171,-0.65176,-0.63039,-0.60762,-0.58347,-0.558,-0.53128,-0.50339,-0.47444,-0.44457,-0.41389,-0.38256,-0.35073,-0.31855,-0.28619,-0.2538,-0.22154,-0.18957,-0.15803,-0.12706,-0.096779,-0.067313,-0.038761,-0.011211,0.015264,0.040606,0.064773,0.087737,0.10949,0.13003,0.14939,0.1676,0.1847,0.20076,0.21585,0.23006,0.24348,0.25622,0.26839,0.28012,0.29153,0.30275,0.31393,0.3252,0.3367,0.34858,0.36098,0.37404,0.3879,0.40271,0.41858,0.43565,0.45402,0.47383,0.49515,0.51808,0.5427,0.56906,0.59723,0.62722,0.65906,0.69273,0.72823,0.76549,0.80448,0.84509,0.88722,0.93075,0.97553,1.0214,1.0682,1.1156,1.1635,1.2116,1.2597,1.3075,1.3546,1.4009,1.446,1.4896,1.5313,1.571,1.6082,1.6428,1.6743,1.7026,1.7273,1.7482,1.7651,1.7778,1.7861,1.7899,1.7889,1.7832,1.7725,1.757,1.7365,1.7111,1.6809,1.6458,1.6059,1.5615,1.5126,1.4594,1.4021,1.3409,1.276,1.2077,1.1361,1.0616,0.98447,0.90491,0.82322,0.73969,0.65458,0.56818,0.48076,0.3926,0.30396,0.21511,0.12631,0.037806,-0.05015,-0.13732,-0.22346,-0.30835,-0.39177,-0.47349,-0.5533,-0.63101,-0.7064,-0.7793,-0.84951,-0.91686,-0.98118,-1.0423,-1.1001,-1.1544,-1.2051,-1.2522,-1.2954,-1.3347,-1.3702,-1.4016,-1.4291,-1.4526,-1.4721,-1.4878,-1.4996,-1.5077,-1.5122,-1.5133,-1.5111,-1.5058,-1.4977,-1.4869,-1.4738,-1.4585,-1.4415,-1.4228,-1.403,-1.3821,-1.3607,-1.3388,-1.3168,-1.2951,-1.2737,-1.253,-1.2332,-1.2144,-1.1969,-1.1807,-1.1659,-1.1527,-1.141,-1.1308,-1.1221,-1.1148,-1.1088,-1.104,-1.1002,-1.0972,-1.0948,-1.0927,-1.0907,-1.0886,-1.086,-1.0827,-1.0783,-1.0727,-1.0655,-1.0565,-1.0455,-1.0322,-1.0164,-0.99807,-0.97697,-0.95302,-0.92616,-0.89633,-0.86355,-0.82784,-0.78926,-0.74792,-0.70393,-0.65746,-0.60868,-0.5578,-0.50505,-0.45065,-0.39486,-0.33795,-0.28019,-0.22184,-0.16317,-0.10445,-0.045926,0.012147,0.06954,0.12604,0.18143,0.23556,0.28824,0.33934,0.38875,0.43635,0.48208,0.52587,0.56768,0.60749,0.64529,0.68108,0.71489,0.74674,0.77666,0.80471,0.83092,0.85534,0.87804,0.89906,0.91844,0.93624,0.95251,0.96727,0.98056,0.99242,1.0029,1.0119,1.0196,1.0259,1.0309,1.0346,1.0369,1.0379,1.0376,1.0359,1.033,1.0288,1.0234,1.0167,1.0088,0.99982,0.98969,0.97849,0.9663,0.95316,0.93914,0.92433,0.90879,0.89261,0.87587,0.85866,0.84107,0.82317,0.80506,0.78682,0.76852,0.75024,0.73204,0.71399,0.69615,0.67854,0.66122,0.64421,0.62752,0.61117,0.59516,0.57948,0.56411,0.54902,0.53419,0.51958,0.50514,0.49083,0.47661,0.46241,0.44819,0.43391,0.41951,0.40494,0.39019,0.3752,0.35995,0.34443,0.32862,0.31253,0.29615,0.27951,0.26264,0.24556,0.22833,0.211,0.19364,0.1763,0.15908,0.14206,0.12532,0.10897,0.093094,0.077795,0.063173,0.049324,0.036346,0.024328,0.01336,0.0035194,-0.00512,-0.012495,-0.018552,-0.023247,-0.026551,-0.028444,-0.02892,-0.027986,-0.025663,-0.021983,-0.016994,-0.010756,-0.0033398,0.0051704,0.01468,0.025082,0.036264,0.0481,0.06046,0.073206,0.086195,0.099278,0.1123,0.12512,0.13757,0.1495,0.16075,0.17118,0.18064,0.18897,0.19605,0.20173,0.20589,0.20842,0.20921,0.20816,0.20517,0.20019,0.19314,0.18398,0.17267,0.15919,0.14355,0.12574,0.10581,0.083796,0.059758,0.033775,0.0059437,-0.023625,-0.054803,-0.087446,-0.1214,-0.15648,-0.19252,-0.2293,-0.26663,-0.30428,-0.34203,-0.37964,-0.41688,-0.45351,-0.48929,-0.52399,-0.55737,-0.58921,-0.61928,-0.6474,-0.67337,-0.69701,-0.71817,-0.73672,-0.75255,-0.76557,-0.77572,-0.78296,-0.78729,-0.78873,-0.78732,-0.78314,-0.7763,-0.76693,-0.75518,-0.74122,-0.72527,-0.70753,-0.68824,-0.66765,-0.64602,-0.62361,-0.60071,-0.57757,-0.55447,-0.53168,-0.50944,-0.48801,-0.46762,-0.44846,-0.43074,-0.41461,-0.40023,-0.3877,-0.37712,-0.36853,-0.36198,-0.35746,-0.35493,-0.35433,-0.35559,-0.35858,-0.36316,-0.36917,-0.37644,-0.38475,-0.3939,-0.40367,-0.41381,-0.4241,-0.43429,-0.44416,-0.45348,-0.46202,-0.46958,-0.47598,-0.48104,-0.48462,-0.48658,-0.48683,-0.48528,-0.48189,-0.47663,-0.46951,-0.46055,-0.44981,-0.43737,-0.42334,-0.40782,-0.39096,-0.37292,-0.35385,-0.33394,-0.31337,-0.29231,-0.27096,-0.24949,-0.22808,-0.20689,-0.18607,-0.16576,-0.14608,-0.12714,-0.10902,-0.09177,-0.075443,-0.060054,-0.0456,-0.032058,-0.019384,-0.0075137,0.0036326,0.014151,0.024152,0.033756,0.043092,0.052298,0.061513,0.070879,0.080535,0.090618,0.10126,0.11257,0.12468,0.13767,0.15163,0.16663,0.18271,0.19992,0.21827,0.23775,0.25835,0.28002,0.3027,0.32633,0.3508,0.37602,0.40186,0.4282,0.45488,0.48175,0.50867,0.53545,0.56194,0.58796,0.61335,0.63793,0.66155,0.68403,0.70523,0.72501,0.74321,0.75971,0.7744,0.78715,0.79788,0.8065,0.81292,0.81708,0.81893,0.81842,0.81553,0.81021,0.80248,0.79231,0.77973,0.76475,0.7474,0.72772,0.70576,0.68158,0.65526,0.62688,0.59654,0.56435,0.53043,0.49491,0.45795,0.41971,0.38036,0.34009,0.29912,0.25765,0.21593,0.17418,0.13268,0.091669,0.051434,0.01225,-0.025598,-0.061823,-0.096137,-0.12826,-0.1579,-0.18479,-0.20867,-0.22928,-0.24639,-0.2598,-0.26929,-0.27471,-0.27591,-0.27279,-0.26524,-0.25324,-0.23677,-0.21585,-0.19053,-0.16092,-0.12715,-0.089396,-0.047858,-0.0027824,0.045555,0.096847,0.15076,0.20692,0.26494,0.32443,0.38494,0.44604,0.50728,0.56821,0.62837,0.68729,0.74454,0.79967,0.85225,0.90187,0.94814,0.9907,1.0292,1.0634,1.0928,1.1175,1.137,1.1512,1.1601,1.1635,1.1613,1.1536,1.1404,1.1218,1.0978,1.0687,1.0345,0.99556,0.95211,0.90443,0.85281,0.79761,0.73919,0.67791,0.61417,0.54839,0.48097,0.41232,0.34287,0.27303,0.20321,0.1338,0.065181,-0.0022804,-0.068244,-0.13239,-0.19443,-0.2541,-0.31117,-0.36544,-0.41674,-0.46495,-0.50997,-0.55174,-0.59024,-0.62547,-0.65747,-0.68632,-0.71211,-0.73497,-0.75505,-0.77251,-0.78754,-0.80034,-0.81113,-0.82011,-0.82751,-0.83355,-0.83844,-0.84239,-0.84559,-0.84824,-0.8505,-0.85251,-0.85441,-0.8563,-0.85826,-0.86034,-0.86259,-0.86499,-0.86755,-0.8702,-0.87289,-0.87553,-0.878,-0.88019,-0.88196,-0.88314,-0.88359,-0.88313,-0.8816,-0.87882,-0.87464,-0.86889,-0.86143,-0.85212,-0.84084,-0.8275,-0.81202,-0.79434,-0.77442,-0.75227,-0.72791,-0.70137,-0.67274,-0.64212,-0.60963,-0.57543,-0.53969,-0.5026,-0.46439,-0.42529,-0.38554,-0.34541,-0.30516,-0.26508,-0.22543,-0.18651,-0.14859,-0.11194,-0.076825,-0.043496,-0.012193,0.016861,0.043459,0.067416,0.088567,0.10677,0.12191,0.1339,0.14267,0.14818,0.15042,0.14942,0.14521,0.13787,0.1275,0.11422,0.098194,0.079594,0.058625,0.03551,0.010496,-0.016152,-0.04415,-0.073199,-0.10299,-0.13319,-0.16348,-0.19352,-0.22297,-0.25148,-0.27873,-0.30439,-0.32813,-0.34965,-0.36866,-0.38489,-0.3981,-0.40807,-0.41459,-0.41751,-0.41671,-0.41207,-0.40356,-0.39114,-0.37483,-0.3547,-0.33084,-0.30338,-0.27249,-0.23839,-0.20132,-0.16154,-0.11937,-0.075131,-0.029181,0.018108,0.066348,0.11514,0.16407,0.21272,0.2607,0.30759,0.353,0.39654,0.43785,0.47658,0.51242,0.54507,0.57429,0.59982,0.6215,0.63916,0.65269,0.66201,0.66708,0.66791,0.66455,0.65706,0.64557,0.63024,0.61125,0.58882,0.56319,0.53464,0.50347,0.46999,0.43453,0.39743,0.35905,0.31974,0.27986,0.23977,0.19982,0.16035,0.1217,0.084171,0.048073,0.013681,-0.018748,-0.048981,-0.07681,-0.10206,-0.12456,-0.14421,-0.16089,-0.17455,-0.18513,-0.19262,-0.19704,-0.19842,-0.19681,-0.19229,-0.18496,-0.17494,-0.16236,-0.14735,-0.13007,-0.11068,-0.089349,-0.066246,-0.041542,-0.015411,0.011978,0.040458,0.069867,0.10005,0.13086,0.16215,0.19379,0.22566,0.25764,0.28963,0.32152,0.35322,0.38466,0.41575,0.44641,0.47659,0.50621,0.53521,0.56353,0.59111,0.61787,0.64377,0.66874,0.69269,0.71557,0.7373,0.75779,0.77698,0.79477,0.81108,0.82583,0.83892,0.85028,0.85982,0.86746,0.87313,0.87676,0.87828,0.87765,0.87482,0.86976,0.86245,0.85289,0.84107,0.82702,0.81077,0.79238,0.7719,0.74941,0.72499,0.69876,0.67082,0.64129,0.6103,0.578,0.54453,0.51003,0.47467,0.43858,0.40192,0.36485,0.3275,0.29002,0.25253,0.21517,0.17805,0.14126,0.10491,0.069076,0.033822,-0.00079591,-0.034735,-0.067967,-0.10048,-0.13226,-0.16332,-0.19368,-0.22338,-0.25243,-0.28091,-0.30884,-0.33629,-0.36332,-0.39,-0.41637,-0.4425,-0.46844,-0.49426,-0.51998,-0.54565,-0.57129,-0.59692,-0.62255,-0.64816,-0.67374,-0.69924,-0.72463,-0.74982,-0.77475,-0.79932,-0.82341,-0.84691,-0.86968,-0.89157,-0.91243,-0.93209,-0.95039,-0.96714,-0.98216,-0.99529,-1.0063,-1.0151,-1.0215,-1.0253,-1.0264,-1.0246,-1.0199,-1.0121,-1.0012,-0.98715,-0.96984,-0.94932,-0.92561,-0.89875,-0.86881,-0.83591,-0.80016,-0.76172,-0.72077,-0.67751,-0.63216,-0.58496,-0.53617,-0.48607,-0.43493,-0.38306,-0.33075,-0.27831,-0.22603,-0.17423,-0.1232,-0.073224,-0.024579,0.022469,0.067673,0.1108,0.15165,0.19002,0.22574,0.25869,0.28873,0.31577,0.33975,0.36063,0.37838,0.39303,0.4046,0.41316,0.41879,0.4216,0.42171,0.41927,0.41445,0.40744,0.39843,0.38763,0.37527,0.36158,0.34681,0.33121,0.31501,0.29849,0.28188,0.26543,0.24939,0.234,0.21948,0.20604,0.19389,0.18321,0.17417,0.16692,0.16158,0.15827,0.15705,0.158,0.16113,0.16645,0.17393,0.18352,0.19515,0.20869,0.22402,0.24098,0.25936,0.27898,0.29958,0.32092,0.34272,0.3647,0.38655,0.40798,0.42866,0.44828,0.46652,0.48307,0.49763,0.5099,0.51961,0.52649,0.53033,0.53089,0.52802,0.52155,0.51138,0.49743,0.47966,0.45807,0.4327,0.40364,0.37102,0.335,0.2958,0.25366,0.20887,0.16175,0.11267,0.062,0.01016,-0.042418,-0.09528,-0.14796,-0.19999,-0.25088,-0.30016,-0.34736,-0.39203,-0.43372,-0.47202,-0.50655,-0.53694,-0.56288,-0.58409,-0.60033,-0.61142,-0.61722,-0.61764,-0.61265,-0.60227,-0.58658,-0.56571,-0.53983,-0.50918,-0.47404,-0.43474,-0.39165,-0.34517,-0.29576,-0.24388,-0.19003,-0.13475,-0.078548,-0.021983,0.0344,0.090057,0.14445,0.19707,0.24739,0.29496,0.33931,0.38005,0.41679,0.44921,0.47703,0.50001,0.51799,0.53083,0.53846,0.54087,0.53811,0.53028,0.51751,0.50003,0.47807,0.45194,0.42197,0.38855,0.35208,0.313,0.27176,0.22884,0.18473,0.13992,0.094896,0.050139,0.0061201,-0.036711,-0.077927,-0.11713,-0.15395,-0.18806,-0.21918,-0.24705,-0.27147,-0.29228,-0.30939,-0.32272,-0.33226,-0.33805,-0.34016,-0.33871,-0.33386,-0.3258,-0.31475,-0.30097,-0.28475,-0.26637,-0.24616,-0.22443,-0.20152,-0.17776,-0.15347,-0.12897,-0.10457,-0.080561,-0.057207,-0.034758,-0.013436,0.0065653,0.025081,0.041975,0.057146,0.07052,0.082055,0.091739,0.099588,0.10565,0.10998,0.11267,0.11384,0.1136,0.11209,0.10946,0.10586,0.10145,0.096373,0.090792,0.084852,0.078692,0.072442
2,4,-0.45503,-0.35158,-0.24947,-0.14932,-0.051702,0.042808,0.13369,0.22044,0.30264,0.37988,0.45184,0.51821,0.57879,0.63342,0.68199,0.72447,0.7609,0.79137,0.81604,0.83512,0.84888,0.85764,0.86178,0.86171,0.85788,0.85079,0.84093,0.82884,0.81506,0.80013,0.7846,0.769,0.75385,0.73965,0.72686,0.71592,0.70722,0.7011,0.69788,0.69778,0.70102,0.70771,0.71794,0.73172,0.74901,0.76972,0.79369,0.82072,0.85055,0.88289,0.9174,0.95369,0.99138,1.03,1.0692,1.1085,1.1473,1.1854,1.2221,1.2572,1.2902,1.3207,1.3483,1.3729,1.3941,1.4117,1.4255,1.4355,1.4415,1.4436,1.4418,1.4361,1.4267,1.4137,1.3975,1.3781,1.3559,1.3313,1.3044,1.2757,1.2454,1.2139,1.1816,1.1488,1.1157,1.0826,1.0499,1.0176,0.98609,0.95539,0.92563,0.89689,0.86918,0.84249,0.81673,0.79183,0.76764,0.74399,0.72069,0.69753,0.67426,0.65064,0.62642,0.60135,0.57519,0.5477,0.51867,0.48791,0.45526,0.42061,0.38385,0.34493,0.30386,0.26067,0.21543,0.16827,0.11937,0.068923,0.017183,-0.035569,-0.089018,-0.14282,-0.19662,-0.25003,-0.30267,-0.35413,-0.40402,-0.45196,-0.49757,-0.54049,-0.58039,-0.61697,-0.64995,-0.67912,-0.70427,-0.72526,-0.74201,-0.75445,-0.7626,-0.76651,-0.76628,-0.76207,-0.75408,-0.74256,-0.72778,-0.71009,-0.68985,-0.66744,-0.64328,-0.61781,-0.59148,-0.56475,-0.53808,-0.51194,-0.48677,-0.46303,-0.44112,-0.42144,-0.40438,-0.39026,-0.37938,-0.37202,-0.36839,-0.36867,-0.37298,-0.38143,-0.39403,-0.41077,-0.4316,-0.45641,-0.48505,-0.51731,-0.55296,-0.59171,-0.63326,-0.67725,-0.72331,-0.77102,-0.81997,-0.86971,-0.91979,-0.96972,-1.0191,-1.0673,-1.114,-1.1587,-1.2009,-1.2402,-1.2762,-1.3085,-1.3367,-1.3605,-1.3795,-1.3936,-1.4024,-1.4058,-1.4036,-1.3957,-1.382,-1.3625,-1.3372,-1.3062,-1.2696,-1.2275,-1.1801,-1.1277,-1.0704,-1.0087,-0.94285,-0.87321,-0.8002,-0.72425,-0.64582,-0.56539,-0.48345,-0.4005,-0.31708,-0.23371,-0.15092,-0.069248,0.010779,0.088638,0.16382,0.23582,0.30417,0.36841,0.42811,0.48287,0.53232,0.57612,0.61399,0.64567,0.67095,0.68968,0.70174,0.70707,0.70566,0.69756,0.68287,0.66174,0.63437,0.60104,0.56204,0.51775,0.46858,0.41498,0.35744,0.29651,0.23275,0.16676,0.099149,0.030561,-0.038358,-0.10696,-0.17458,-0.24059,-0.30434,-0.36524,-0.42269,-0.47613,-0.52506,-0.56899,-0.6075,-0.64021,-0.6668,-0.687,-0.7006,-0.70746,-0.7075,-0.7007,-0.68712,-0.66686,-0.64009,-0.60704,-0.56802,-0.52335,-0.47344,-0.41874,-0.35973,-0.29694,-0.23093,-0.1623,-0.091653,-0.019626,0.053138,0.12599,0.19829,0.26938,0.33865,0.40549,0.4693,0.52955,0.58572,0.63733,0.68396,0.72524,0.76086,0.79055,0.81414,0.83149,0.84255,0.84733,0.84591,0.83844,0.82516,0.80633,0.78232,0.75354,0.72046,0.68359,0.64349,0.60078,0.55608,0.51005,0.46337,0.41671,0.37077,0.32621,0.28369,0.24384,0.20725,0.17448,0.14605,0.12239,0.10391,0.090919,0.083683,0.082378,0.087109,0.097901,0.1147,0.13737,0.16571,0.19943,0.23817,0.28151,0.32895,0.37995,0.43391,0.49019,0.5481,0.60694,0.66598,0.72447,0.78167,0.83684,0.88927,0.93824,0.98308,1.0232,1.0579,1.0868,1.1094,1.1252,1.134,1.1355,1.1294,1.1158,1.0945,1.0656,1.0294,0.98587,0.93546,0.87849,0.81537,0.74661,0.67273,0.59432,0.51201,0.42646,0.33835,0.24838,0.15728,0.065735,-0.025539,-0.11586,-0.20456,-0.29102,-0.37463,-0.45486,-0.53119,-0.6032,-0.67049,-0.73276,-0.78975,-0.84128,-0.88726,-0.92763,-0.96245,-0.99181,-1.0159,-1.035,-1.0493,-1.0593,-1.0653,-1.0679,-1.0674,-1.0646,-1.0598,-1.0538,-1.047,-1.04,-1.0335,-1.0279,-1.0238,-1.0217,-1.0219,-1.0248,-1.0308,-1.0399,-1.0525,-1.0686,-1.0881,-1.1109,-1.1369,-1.1657,-1.197,-1.2304,-1.2653,-1.301,-1.3371,-1.3727,-1.4071,-1.4395,-1.4691,-1.4951,-1.5168,-1.5333,-1.5439,-1.5479,-1.5446,-1.5335,-1.5141,-1.486,-1.4489,-1.4026,-1.3471,-1.2822,-1.2082,-1.1253,-1.0339,-0.93438,-0.82742,-0.71365,-0.59384,-0.46881,-0.33949,-0.20683,-0.07184,0.064427,0.20091,0.33654,0.47025,0.60101,0.72779,0.84964,0.96563,1.0749,1.1768,1.2704,1.3554,1.431,1.497,1.5531,1.599,1.6346,1.66,1.6753,1.6807,1.6764,1.663,1.6408,1.6104,1.5724,1.5275,1.4764,1.4199,1.3588,1.2938,1.2258,1.1555,1.0839,1.0117,0.93965,0.86849,0.79891,0.73156,0.66703,0.60586,0.54852,0.49541,0.44687,0.40319,0.36456,0.33112,0.30293,0.28,0.26226,0.24959,0.24181,0.23868,0.23992,0.24521,0.25417,0.2664,0.28147,0.29894,0.31833,0.33916,0.36094,0.38319,0.40541,0.42713,0.44789,0.46725,0.48479,0.50011,0.51285,0.52268,0.52931,0.53247,0.53197,0.52762,0.51929,0.50691,0.49043,0.46985,0.44523,0.41665,0.38424,0.34818,0.30868,0.26599,0.22037,0.17214,0.12163,0.069196,0.015205,-0.039955,-0.095889,-0.15219,-0.20847,-0.26432,-0.31936,-0.3732,-0.42549,-0.47589,-0.52409,-0.5698,-0.61276,-0.65275,-0.6896,-0.72314,-0.75329,-0.77996,-0.80314,-0.82285,-0.83913,-0.85209,-0.86187,-0.86862,-0.87254,-0.87388,-0.87289,-0.86984,-0.86502,-0.85875,-0.85133,-0.84308,-0.83431,-0.82533,-0.81642,-0.80787,-0.79993,-0.79282,-0.78673,-0.78184,-0.77828,-0.77614,-0.77548,-0.77632,-0.77865,-0.78241,-0.78752,-0.79387,-0.8013,-0.80963,-0.81869,-0.82825,-0.83808,-0.84794,-0.85759,-0.86678,-0.87527,-0.88281,-0.88917,-0.89414,-0.89752,-0.8991,-0.89874,-0.89628,-0.89159,-0.88458,-0.87516,-0.86328,-0.84889,-0.83197,-0.81254,-0.79061,-0.76621,-0.7394,-0.71024,-0.67881,-0.64519,-0.60949,-0.57181,-0.53227,-0.49098,-0.44807,-0.40367,-0.35793,-0.31098,-0.26297,-0.21407,-0.16444,-0.11425,-0.06367,-0.0129,0.037869,0.088433,0.13858,0.18809,0.23673,0.28428,0.3305,0.37514,0.41798,0.45878,0.49731,0.53334,0.56667,0.5971,0.62446,0.64859,0.66937,0.68669,0.70049,0.71073,0.71741,0.72056,0.72026,0.71662,0.70979,0.69995,0.68732,0.67215,0.65473,0.63536,0.61437,0.5921,0.56892,0.54518,0.52125,0.4975,0.47427,0.45189,0.43067,0.41089,0.3928,0.3766,0.36247,0.35051,0.34081,0.33338,0.32819,0.32516,0.32417,0.32503,0.32752,0.33139,0.33633,0.34202,0.34811,0.35423,0.36002,0.3651,0.36911,0.37169,0.37253,0.37134,0.36785,0.36187,0.35323,0.34184,0.32766,0.31071,0.29107,0.2689,0.24442,0.2179,0.18968,0.16014,0.12973,0.098922,0.068223,0.038169,0.0093088,-0.017804,-0.042621,-0.064609,-0.083262,-0.098109,-0.10873,-0.11474,-0.11586,-0.11183,-0.10251,-0.087821,-0.067777,-0.042482,-0.012131,0.022993,0.062517,0.10598,0.15286,0.20253,0.25434,0.30754,0.36137,0.41502,0.46768,0.51849,0.56665,0.61133,0.65175,0.6872,0.71698,0.7405,0.75722,0.7667,0.76861,0.76269,0.74883,0.72699,0.69728,0.6599,0.61516,0.5635,0.50544,0.44159,0.37267,0.29945,0.22278,0.14356,0.062725,-0.018768,-0.099945,-0.17984,-0.25749,-0.33199,-0.40245,-0.46806,-0.52806,-0.58178,-0.62864,-0.66813,-0.69986,-0.72357,-0.73906,-0.74627,-0.74525,-0.73614,-0.71922,-0.69483,-0.66343,-0.62555,-0.58182,-0.53293,-0.47961,-0.42265,-0.3629,-0.30119,-0.2384,-0.1754,-0.11304,-0.052164,0.0064291,0.061972,0.11375,0.16111,0.20345,0.24026,0.27109,0.29557,0.31342,0.32443,0.32849,0.32555,0.31566,0.29892,0.27553,0.24573,0.20985,0.16826,0.12136,0.069635,0.013566,-0.046322,-0.10949,-0.17537,-0.24342,-0.31308,-0.38378,-0.455,-0.52622,-0.59693,-0.66668,-0.73502,-0.80155,-0.8659,-0.92775,-0.98679,-1.0428,-1.0955,-1.1447,-1.1904,-1.2323,-1.2705,-1.3048,-1.3352,-1.3618,-1.3845,-1.4035,-1.4186,-1.4301,-1.438,-1.4424,-1.4433,-1.4409,-1.4352,-1.4264,-1.4145,-1.3996,-1.3818,-1.3612,-1.3378,-1.3118,-1.283,-1.2517,-1.2178,-1.1814,-1.1425,-1.1012,-1.0574,-1.0112,-0.96267,-0.91176,-0.85851,-0.80298,-0.74519,-0.68519,-0.62303,-0.55878,-0.49252,-0.42432,-0.35429,-0.28255,-0.20923,-0.13447,-0.058445,0.018665,0.096662,0.17533,0.25443,0.33372,0.41294,0.49181,0.57004,0.64734,0.72339,0.7979,0.87055,0.94104,1.009,1.0743,1.1364,1.1953,1.2505,1.3018,1.3491,1.3921,1.4306,1.4646,1.4938,1.5182,1.5378,1.5525,1.5623,1.5673,1.5676,1.5633,1.5544,1.5412,1.5239,1.5027,1.4778,1.4495,1.418,1.3835,1.3465,1.3071,1.2656,1.2222,1.1773,1.131,1.0836,1.0352,0.98597,0.93611,0.8857,0.83484,0.78359,0.73198,0.68005,0.62778,0.57517,0.52218,0.46877,0.41492,0.36056,0.30566,0.2502,0.19415,0.13751,0.080293,0.022549,-0.03566,-0.09424,-0.15307,-0.21199,-0.27082,-0.32934,-0.38731,-0.44445,-0.50047,-0.55505,-0.60784,-0.65848,-0.70662,-0.75188,-0.79388,-0.83227,-0.86668,-0.89677,-0.92223,-0.94276,-0.95813,-0.9681,-0.9725,-0.97123,-0.9642,-0.95141,-0.9329,-0.90878,-0.87922,-0.84445,-0.80476,-0.7605,-0.71208,-0.65996,-0.60465,-0.54669,-0.48668,-0.42523,-0.36298,-0.30058,-0.2387,-0.17799,-0.1191,-0.062654,-0.0092516,0.040543,0.086209,0.12728,0.16334,0.19404,0.2191,0.23831,0.25154,0.25871,0.25986,0.25508,0.24453,0.22846,0.20719,0.18109,0.1506,0.11622,0.078492,0.037988,-0.0046785,-0.048875,-0.093957,-0.13927,-0.18418,-0.22805,-0.27028,-0.31028,-0.34753,-0.38155,-0.41189,-0.43818,-0.46011,-0.47745,-0.49001,-0.4977,-0.5005,-0.49844,-0.49165,-0.48032,-0.46468,-0.44506,-0.42181,-0.39535,-0.36613,-0.33465,-0.30142,-0.26698,-0.23189,-0.19668,-0.16191,-0.12812,-0.095801,-0.065453,-0.03752,-0.012408,0.0095245,0.027972,0.042687,0.053482,0.060234,0.062885,0.061444,0.055986,0.046654,0.033652,0.017248,-0.0022316,-0.024409,-0.048855,-0.075098,-0.10263,-0.13091,-0.15939,-0.18748,-0.2146,-0.24018,-0.26363,-0.28442,-0.30201,-0.3159,-0.32565,-0.33084,-0.33114,-0.32624,-0.31592,-0.30003,-0.27847,-0.25124,-0.21841,-0.1801,-0.13654,-0.088014,-0.034886,0.022416,0.083401,0.14752,0.21417,0.2827,0.35243,0.42264,0.4926,0.56156,0.62876,0.69345,0.75491,0.81241,0.86529,0.91289,0.95465,0.99001,1.0185,1.0397,1.0534,1.0592,1.0569,1.0466,1.0282,1.0017,0.96742,0.92551,0.87633,0.82028,0.75783,0.68954,0.61599,0.53785,0.45581,0.3706,0.28299,0.19375,0.10369,0.013596,-0.075745,-0.16356,-0.24909,-0.33164,-0.41051,-0.48508,-0.55478,-0.61908,-0.67752,-0.72973,-0.77538,-0.81424,-0.84614,-0.871,-0.88881,-0.89963,-0.9036,-0.90094,-0.89192,-0.8769,-0.85627,-0.8305,-0.80009,-0.76559,-0.72758,-0.68666,-0.64348,-0.59866,-0.55286,-0.50671,-0.46084,-0.41587,-0.37238,-0.33093,-0.29202,-0.25613,-0.22367,-0.19503,-0.17051,-0.15036,-0.13477,-0.12387,-0.11774,-0.11637,-0.11971,-0.12765,-0.14002,-0.15661,-0.17714,-0.20131,-0.22876,-0.25912,-0.29196,-0.32687,-0.36337,-0.40101,-0.43931,-0.47779,-0.51598,-0.5534,-0.58959,-0.6241,-0.6565,-0.68637,-0.71332,-0.73699,-0.75703,-0.77313,-0.785,-0.79239,-0.79508,-0.79288,-0.78563,-0.77321,-0.75552,-0.73253,-0.70421,-0.67058,-0.6317,-0.58766,-0.5386,-0.48468,-0.42611,-0.36314,-0.29605,-0.22517,-0.15084,-0.073454,0.0065546,0.088733,0.1726,0.25763,0.34331,0.42907,0.51434,0.59854,0.68108,0.76136,0.83881,0.91282,0.98285,1.0483,1.1088,1.1636,1.2124,1.2548,1.2904,1.3188,1.3397,1.353,1.3585,1.356,1.3456,1.3272,1.3009,1.267,1.2255,1.1769,1.1213,1.0593,0.99132,0.9178,0.83934,0.75654,0.67003,0.58048,0.48859,0.39507,0.30065,0.20608,0.11207,0.019351,-0.071364,-0.1594,-0.24409,-0.32483,-0.40103,-0.47219,-0.53783,-0.59753,-0.65096,-0.69783,-0.73794,-0.77114,-0.79737,-0.81664,-0.82901,-0.83464,-0.83374,-0.82658,-0.81349,-0.79485,-0.77111,-0.74273,-0.71023,-0.67413,-0.63499,-0.59338,-0.54987,-0.50503,-0.45942,-0.41357,-0.36801,-0.32322,-0.27964,-0.2377,-0.19775,-0.16011,-0.12505,-0.092787,-0.063483,-0.03725,-0.014149,0.0058084,0.022657,0.036474,0.047377,0.055516,0.061074,0.064256,0.06529,0.064414,0.061878,0.057935,0.052836,0.046827,0.040144
